Interval=	0,001 s
ExcelDateTime=	4,6092614496418428e+004	11.03.2026 14:44:52,490552
TimeFormat=	StartOfBlock
DateFormat=	
ChannelTitle=	Channel 3	Channel 4
Range=	5,000 mV	5,000 mV
0,01	-0,06742188	0,3258876
0,011	-0,06742188	0,3258876
0,012	-0,08089844	0,3258876
0,013	-0,07792969	0,3258876
0,014	-0,08152344	0,3258876
0,015	-0,07519531	0,3258876
0,016	-0,06414063	0,3258876
0,017	-0,06515625	0,3258876
0,018	-0,07742188	0,3258876
0,019	-0,1022656	0,3258876
0,02	-0,1129688	0,3258876
0,021	-0,07996094	0,3258876
0,022	-0,03539063	0,3258876
0,023	-0,02253906	0,3258876
0,024	-0,02808594	0,3258876
0,025	-0,02527344	0,3258876
0,026	-0,0271875	0,3258876
0,027	-0,05554688	0,3258876
0,028	-0,08410156	0,3258876
0,029	-0,08839844	0,3258876
0,03	-0,09003906	0,3258876
0,031	-0,09175781	0,3258876
0,032	-0,07617188	0,3258876
0,033	-0,05324219	0,3258876
0,034	-0,03929688	0,3258876
0,035	-0,03785156	0,325755
0,036	-0,02855469	0,325755
0,037	0,0008203125	0,325755
0,038	0,01890625	0,325755
0,039	0,02394531	0,325755
0,04	0,02222656	0,325755
0,041	0,007265625	0,325755
0,042	-0,01253906	0,325755
0,043	-0,0790625	0,325755
0,044	-0,1948828	0,325755
0,045	-0,2639844	0,325755
0,046	-0,2107422	0,325755
0,047	-0,09144531	0,325755
0,048	-0,02976563	0,325755
0,049	-0,04351563	0,325755
0,05	-0,08753906	0,325755
0,051	-0,1123828	0,325755
0,052	-0,0946875	0,325755
0,053	-0,0578125	0,325755
0,054	-0,02152344	0,325755
0,055	-0,009296875	0,325755
0,056	-0,01871094	0,325755
0,057	-0,03785156	0,325755
0,058	-0,05863281	0,325755
0,059	-0,05257813	0,325755
0,06	-0,04214844	0,325755
0,061	-0,05507812	0,325755
0,062	-0,04855469	0,325755
0,063	-0,03339844	0,325755
0,064	-0,06109375	0,325755
0,065	-0,08757813	0,325755
0,066	-0,07578125	0,325755
0,067	-0,06449219	0,325755
0,068	-0,0671875	0,325755
0,069	-0,07269531	0,325755
0,07	-0,07015625	0,325755
0,071	-0,05144531	0,325755
0,072	-0,03863281	0,325755
0,073	-0,04066406	0,325755
0,074	-0,04820312	0,325755
0,075	-0,06816406	0,325755
0,076	-0,09574219	0,325755
0,077	-0,1046875	0,325755
0,078	-0,08355469	0,325755
0,079	-0,04605469	0,325755
0,08	-0,008710937	0,325755
0,081	0,01128906	0,325755
0,082	0,03429687	0,325755
0,083	0,04933594	0,325755
0,084	-0,03605469	0,325755
0,085	-0,1630859	0,325755
0,086	-0,1982031	0,325755
0,087	-0,185	0,325755
0,088	-0,1685156	0,325755
0,089	-0,1238281	0,325755
0,09	-0,08179688	0,325755
0,091	-0,06058594	0,325755
0,092	-0,03445313	0,325755
0,093	-0,03382813	0,325755
0,094	-0,07382813	0,325755
0,095	-0,09558594	0,325755
0,096	-0,09273438	0,325755
0,097	-0,09542969	0,325755
0,098	-0,1110547	0,325755
0,099	-0,12875	0,325755
0,1	-0,1190625	0,325755
0,101	-0,09925781	0,325755
0,102	-0,1079688	0,325755
0,103	-0,1092188	0,325755
0,104	-0,0625	0,325755
0,105	-0,01328125	0,325755
0,106	-0,009921875	0,325755
0,107	-0,03363281	0,325755
0,108	-0,05746094	0,325755
0,109	-0,07484375	0,325755
0,11	-0,07394531	0,325755
0,111	-0,05550781	0,325755
0,112	-0,031875	0,325755
0,113	-0,01519531	0,325755
0,114	-0,0140625	0,325755
0,115	-0,01621094	0,325755
0,116	-0,01773438	0,325755
0,117	-0,02773438	0,325755
0,118	-0,03292969	0,325755
0,119	-0,02617188	0,325755
0,12	-0,02445312	0,325755
0,121	-0,02957031	0,325755
0,122	-0,03308594	0,325755
0,123	-0,02628906	0,325755
0,124	-0,01644531	0,325755
0,125	-0,02863281	0,325755
0,126	-0,04378906	0,325755
0,127	-0,02453125	0,325755
0,128	-0,006601562	0,325755
0,129	-0,04246094	0,325755
0,13	-0,07765625	0,325755
0,131	-0,063125	0,325755
0,132	-0,03519531	0,325755
0,133	-0,01964844	0,325755
0,134	-0,04367187	0,325755
0,135	-0,07359375	0,325755
0,136	-0,0275	0,325755
0,137	0,04222656	0,325755
0,138	0,02046875	0,325755
0,139	-0,05429688	0,325755
0,14	-0,06375	0,325755
0,141	-0,03066406	0,325755
0,142	-0,00828125	0,325755
0,143	0,01625	0,325755
0,144	0,02292969	0,325755
0,145	0,01878906	0,325755
0,146	0,02921875	0,325755
0,147	0,0434375	0,325755
0,148	0,05023437	0,325755
0,149	0,04734375	0,325755
0,15	0,04246094	0,325755
0,151	0,02945313	0,325755
0,152	0,008710937	0,325755
0,153	0,001796875	0,325755
0,154	0,003398438	0,325755
0,155	-7,8125e-005	0,325755
0,156	-0,005039063	0,325755
0,157	-0,01425781	0,325755
0,158	-0,01960938	0,325755
0,159	-0,007578125	0,325755
0,16	0,002109375	0,325755
0,161	0,0046875	0,325755
0,162	0,02808594	0,325755
0,163	0,02957031	0,325755
0,164	-0,01484375	0,325755
0,165	-0,03179688	0,325755
0,166	-0,01707031	0,325755
0,167	0,01175781	0,325755
0,168	0,01597656	0,325755
0,169	-0,05128906	0,325755
0,17	-0,08039063	0,325755
0,171	-0,02878906	0,325755
0,172	0,01449219	0,325755
0,173	0,03617187	0,325755
0,174	0,0275	0,325755
0,175	-0,01539063	0,325755
0,176	-0,02976563	0,325755
0,177	-0,008984375	0,325755
0,178	0,01195313	0,325755
0,179	0,01441406	0,325755
0,18	-0,01917969	0,325755
0,181	-0,06011719	0,325755
0,182	-0,06570313	0,325755
0,183	-0,04171875	0,325755
0,184	-0,03390625	0,325755
0,185	-0,05074219	0,325755
0,186	-0,06796875	0,325755
0,187	-0,09605469	0,325755
0,188	-0,1208203	0,325755
0,189	-0,1157422	0,325755
0,19	-0,1105469	0,325755
0,191	-0,1155469	0,325755
0,192	-0,1048438	0,325755
0,193	-0,09207031	0,325755
0,194	-0,08195313	0,325755
0,195	-0,05660156	0,325755
0,196	-0,03953125	0,325755
0,197	-0,04671875	0,325755
0,198	-0,060625	0,325755
0,199	-0,07289063	0,325755
0,2	-0,08304688	0,325755
0,201	-0,08292969	0,325755
0,202	-0,05148437	0,325755
0,203	0,02328125	0,325755
0,204	0,06320312	0,325755
0,205	-0,0346875	0,325755
0,206	-0,1651563	0,325755
0,207	-0,1942969	0,325755
0,208	-0,1962109	0,325755
0,209	-0,1976172	0,325755
0,21	-0,1591797	0,325755
0,211	-0,1139063	0,325755
0,212	-0,08503906	0,325755
0,213	-0,08457031	0,325755
0,214	-0,09445312	0,325755
0,215	-0,09050781	0,325755
0,216	-0,08292969	0,325755
0,217	-0,06683594	0,325755
0,218	-0,05644531	0,325755
0,219	-0,05183594	0,325755
0,22	-0,03359375	0,325755
0,221	-0,02652344	0,325755
0,222	-0,02730469	0,325755
0,223	-0,03011719	0,325755
0,224	-0,05304688	0,325755
0,225	-0,06824219	0,325755
0,226	-0,06359375	0,325755
0,227	-0,06207031	0,325755
0,228	-0,06417969	0,325755
0,229	-0,06894531	0,325755
0,23	-0,07183594	0,325755
0,231	-0,06035156	0,3258743
0,232	-0,05820313	0,3257298
0,233	-0,07433594	0,3253674
0,234	-0,08152344	0,3247813
0,235	-0,08539062	0,3240604
0,236	-0,09664063	0,3234055
0,237	-0,1074609	0,3231116
0,238	-0,1151953	0,3236569
0,239	-0,123125	0,3248375
0,24	-0,1221094	0,3268014
0,241	-0,1080859	0,3293546
0,242	-0,08730469	0,3320824
0,243	-0,0484375	0,3343855
0,244	-0,05171875	0,3355706
0,245	-0,1051172	0,3350531
0,246	-0,08	0,3321826
0,247	0,01824219	0,3269046
0,248	0,09167969	0,3195946
0,249	0,09046875	0,3111774
0,25	0,01730469	0,3030999
0,251	-0,02753906	0,297207
0,252	0,02925781	0,2954675
0,253	0,1450391	0,2999811
0,254	0,2655469	0,3122313
0,255	0,3668359	0,3330964
0,256	0,4122656	0,3626182
0,257	0,4049219	0,399924
0,258	0,3828125	0,4432664
0,259	0,3966797	0,4900426
0,26	0,4800781	0,5378842
0,261	0,5804687	0,5839755
0,262	0,6617188	0,6259045
0,263	0,7132031	0,6617093
0,264	0,7181641	0,6899651
0,265	0,7102344	0,7098007
0,266	0,7303516	0,720702
0,267	0,7970312	0,7234185
0,268	0,8737891	0,7186125
0,269	0,8864844	0,7071915
0,27	0,8398047	0,6899824
0,271	0,788125	0,667626
0,272	0,726875	0,6405614
0,273	0,6139062	0,6089356
0,274	0,4839844	0,5735743
0,275	0,4208203	0,5348763
0,276	0,403125	0,4933649
0,277	0,3725391	0,4495808
0,278	0,3323437	0,4041036
0,279	0,2970703	0,3575671
0,28	0,2751953	0,3105172
0,281	0,2342969	0,2641646
0,282	0,1534375	0,219141
0,283	0,1071094	0,1760954
0,284	0,1168359	0,135552
0,285	0,1067969	0,09792482
0,286	0,05800781	0,06353868
0,287	0,003164063	0,03248902
0,288	-0,03042969	0,005411482
0,289	-0,029375	-0,01781528
0,29	-0,00640625	-0,0372352
0,291	-0,014375	-0,05295296
0,292	-0,071875	-0,06512465
0,293	-0,1030078	-0,07395973
0,294	-0,07679688	-0,08000263
0,295	-0,03054688	-0,08283592
0,296	0,01582031	-0,0832984
0,297	0,03992188	-0,08190303
0,298	0,02964844	-0,07910124
0,299	-0,005	-0,07528648
0,3	-0,06582031	-0,07081593
0,301	-0,1111328	-0,0663266
0,302	-0,08507813	-0,06136163
0,303	-0,05359375	-0,05672792
0,304	-0,05460938	-0,05281321
0,305	-0,02816406	-0,04988083
0,306	-0,00171875	-0,04808095
0,307	-0,03316406	-0,04747754
0,308	-0,09742188	-0,04828182
0,309	-0,1276953	-0,04990674
0,31	-0,1123438	-0,05263686
0,311	-0,1029688	-0,05646445
0,312	-0,1115625	-0,06130075
0,313	-0,1217969	-0,06698373
0,314	-0,1292187	-0,07329624
0,315	-0,1207422	-0,08007479
0,316	-0,09476563	-0,08683452
0,317	-0,07917969	-0,09349697
0,318	-0,07984375	-0,09989598
0,319	-0,07835937	-0,1058651
0,32	-0,09347656	-0,1112368
0,321	-0,1257422	-0,1158478
0,322	-0,1214844	-0,1195629
0,323	-0,0871875	-0,122239
0,324	-0,08878906	-0,12385
0,325	-0,1273047	-0,1243898
0,326	-0,1494531	-0,1238816
0,327	-0,1167188	-0,122372
0,328	-0,05972656	-0,1199303
0,329	-0,04324219	-0,1166471
0,33	-0,05785156	-0,1126538
0,331	-0,08007813	-0,1081028
0,332	-0,1095313	-0,1031508
0,333	-0,1335547	-0,09795349
0,334	-0,1365625	-0,09266326
0,335	-0,1034375	-0,08742842
0,336	-0,06996094	-0,08239487
0,337	-0,0646875	-0,07769545
0,338	-0,05085937	-0,07346096
0,339	-0,03285156	-0,06978924
0,34	-0,04089844	-0,06674876
0,341	-0,05332031	-0,06438037
0,342	-0,06324219	-0,0626997
0,343	-0,08820313	-0,06169281
0,344	-0,1146484	-0,06135076
0,345	-0,1250781	-0,06162416
0,346	-0,1196875	-0,06244987
0,347	-0,1086328	-0,06374785
0,348	-0,1099609	-0,06542294
0,349	-0,115625	-0,06736672
0,35	-0,08625	-0,06943613
0,351	-0,04632812	-0,07158339
0,352	-0,0434375	-0,07366997
0,353	-0,04230469	-0,07559405
0,354	-0,04742188	-0,07726614
0,355	-0,08699219	-0,07860757
0,356	-0,1049609	-0,07954942
0,357	-0,07714844	-0,07999953
0,358	-0,04832031	-0,0800165
0,359	-0,04691406	-0,07954372
0,36	-0,04113281	-0,07857896
0,361	-0,01671875	-0,07713796
0,362	-0,01976563	-0,07525105
0,363	-0,04441406	-0,07296048
0,364	-0,05019531	-0,07028985
0,365	-0,046875	-0,06738947
0,366	-0,06636719	-0,06430129
0,367	-0,09714844	-0,06109722
0,368	-0,09101563	-0,05784824
0,369	-0,06621094	-0,05462261
0,37	-0,07246094	-0,05148435
0,371	-0,09210938	-0,04846968
0,372	-0,09714844	-0,04569897
0,373	-0,07554687	-0,04319488
0,374	-0,02050781	-0,0409882
0,375	0,01515625	-0,03909608
0,376	-0,02558594	-0,03752234
0,377	-0,09742188	-0,03625785
0,378	-0,1167578	-0,03525698
0,379	-0,07625	-0,03456218
0,38	-0,0315625	-0,03411253
0,381	-0,005976563	-0,03386499
0,382	0,01175781	-0,03377151
0,383	0,01199219	-0,03377925
0,384	-0,01226563	-0,03383093
0,385	-0,04097656	-0,03383465
0,386	-0,03289063	-0,0338264
0,387	-0,000234375	-0,03372186
0,388	-0,01699219	-0,03347716
0,389	-0,06242188	-0,03305698
0,39	-0,05191406	-0,03243301
0,391	-0,004648437	-0,03158285
0,392	0,01085938	-0,03045393
0,393	-0,01175781	-0,02914697
0,394	-0,03167969	-0,02762771
0,395	-0,009296875	-0,02590767
0,396	-0,002265625	-0,02400608
0,397	-0,07058594	-0,02194741
0,398	-0,1161719	-0,01975924
0,399	-0,08066406	-0,01743464
0,4	-0,02039062	-0,01511598
0,401	0,02511719	-0,01280183
0,402	0,03640625	-0,01052532
0,403	0,03015625	-0,008316246
0,404	0,03011719	-0,006199076
0,405	0,01304687	-0,004191316
0,406	-0,02226563	-0,002265808
0,407	-0,007304688	-0,0005397716
0,408	0,04652344	0,001020324
0,409	0,02460937	0,002418306
0,41	-0,05449219	0,003665538
0,411	-0,07882812	0,004782082
0,412	-0,04066406	0,005797341
0,413	0,002890625	0,00678974
0,414	0,01621094	0,007677231
0,415	0,009296875	0,008535889
0,416	0,01085938	0,009401752
0,417	0,02351563	0,01031124
0,418	0,0296875	0,0113024
0,419	0,02476562	0,01241535
0,42	0,023125	0,01373563
0,421	0,02414062	0,01516303
0,422	0,01953125	0,01676445
0,423	0,02242188	0,0185552
0,424	0,03359375	0,0205445
0,425	0,03648437	0,02273752
0,426	0,03632813	0,02513652
0,427	0,04183594	0,02778794
0,428	0,03878906	0,03053903
0,429	0,02046875	0,03341791
0,43	0,006210938	0,03640102
0,431	0,01957031	0,03946224
0,432	0,05671875	0,04257526
0,433	0,07902344	0,04571542
0,434	0,06894531	0,04890962
0,435	0,05054687	0,05198616
0,436	0,0421875	0,05497089
0,437	0,04316406	0,05784371
0,438	0,04507813	0,06058876
0,439	0,04136719	0,06319635
0,44	0,04765625	0,06566472
0,441	0,07296875	0,06805051
0,442	0,07953125	0,07021675
0,443	0,06078125	0,07223099
0,444	0,06375	0,07411411
0,445	0,07742188	0,07588966
0,446	0,06734375	0,07758487
0,447	0,05832031	0,07923179
0,448	0,06164063	0,08091441
0,449	0,065	0,08253252
0,45	0,07257813	0,08417613
0,451	0,075625	0,08588273
0,452	0,07308594	0,08768319
0,453	0,09027344	0,08960208
0,454	0,1352344	0,09165854
0,455	0,1636328	0,09390648
0,456	0,1519531	0,09623928
0,457	0,1614453	0,0987112
0,458	0,2093359	0,1013258
0,459	0,1940234	0,1040749
0,46	0,08367188	0,1069392
0,461	0,02355469	0,1098891
0,462	0,05855469	0,1129179
0,463	0,0721875	0,1158981
0,464	0,07839844	0,1188366
0,465	0,1341016	0,1217032
0,466	0,1530469	0,1244618
0,467	0,099375	0,1270701
0,468	0,06011719	0,1294816
0,469	0,04230469	0,1316711
0,47	0,03152344	0,1335413
0,471	0,07855469	0,1351054
0,472	0,1480469	0,1363562
0,473	0,193125	0,1372863
0,474	0,2208594	0,1378883
0,475	0,1857422	0,1381562
0,476	0,1003125	0,1380997
0,477	0,05757813	0,1377094
0,478	0,07121094	0,1370432
0,479	0,1222266	0,1361472
0,48	0,2194531	0,1350634
0,481	0,31	0,1338279
0,482	0,3147266	0,1324723
0,483	0,2397656	0,1310177
0,484	0,1521094	0,1295341
0,485	0,119375	0,1280771
0,486	0,1266406	0,1266991
0,487	0,08527344	0,1254372
0,488	0,0184375	0,1243105
0,489	0,01292969	0,1233205
0,49	0,06214844	0,122421
0,491	0,1368359	0,1217009
0,492	0,1746875	0,1211369
0,493	0,1248047	0,120723
0,494	0,05359375	0,1204355
0,495	0,02785156	0,12023
0,496	0,05535156	0,1200411
0,497	0,09421875	0,1197325
0,498	0,0946875	0,1193927
0,499	0,08785156	0,1189223
0,5	0,1180859	0,1182706
0,501	0,1558984	0,1173809
0,502	0,1752344	0,1161872
0,503	0,1949219	0,1146139
0,504	0,1993359	0,1125147
0,505	0,171875	0,1100318
0,506	0,1367188	0,1070786
0,507	0,1022656	0,1036415
0,508	0,08097656	0,09971156
0,509	0,08328125	0,09528225
0,51	0,08394531	0,0903488
0,511	0,06441406	0,08484036
0,512	0,04523438	0,07899848
0,513	0,04832031	0,07280465
0,514	0,0578125	0,06631639
0,515	0,05621094	0,05959367
0,516	0,04363281	0,0526962
0,517	0,0378125	0,04568244
0,518	0,04792969	0,03853451
0,519	0,05097656	0,03154585
0,52	0,04410156	0,02470653
0,521	0,03363281	0,01807621
0,522	0,01730469	0,01170755
0,523	0,006132813	0,005644287
0,524	-0,000234375	-8,076729e-005
0,525	-0,002773437	-0,005527343
0,526	-0,002773437	-0,01044807
0,527	-0,01902344	-0,01493647
0,528	-0,04410156	-0,01901229
0,529	-0,05492188	-0,02270024
0,53	-0,05054687	-0,02603084
0,531	-0,0421875	-0,02904287
0,532	-0,03585937	-0,0318647
0,533	-0,01921875	-0,03432486
0,534	-0,01539063	-0,03658927
0,535	-0,04738281	-0,03873562
0,536	-0,06542969	-0,04083055
0,537	-0,05570312	-0,04292986
0,538	-0,0446875	-0,04508127
0,539	-0,03574219	-0,04739655
0,54	-0,04136719	-0,04971582
0,541	-0,05171875	-0,05216972
0,542	-0,04398437	-0,054798
0,543	-0,04246094	-0,05761838
0,544	-0,07632812	-0,0606273
0,545	-0,1208203	-0,0638033
0,546	-0,1200781	-0,06716622
0,547	-0,04878906	-0,07051985
0,548	0,01605469	-0,07390304
0,549	-0,009023438	-0,07728531
0,55	-0,04828125	-0,08062262
0,551	-0,04445313	-0,08385869
0,552	-0,05832031	-0,08692926
0,553	-0,05859375	-0,08980954
0,554	-0,0065625	-0,09232232
0,555	-0,01777344	-0,09448515
0,556	-0,1624219	-0,09627521
0,557	-0,2870703	-0,09767159
0,558	-0,2457422	-0,09865643
0,559	-0,13625	-0,09921855
0,56	-0,08132813	-0,09938972
0,561	-0,07929688	-0,09909874
0,562	-0,1053906	-0,09842711
0,563	-0,1264063	-0,0974286
0,564	-0,1245703	-0,09615944
0,565	-0,0990625	-0,09467825
0,566	-0,06386719	-0,09304788
0,567	-0,05222656	-0,0913564
0,568	-0,07058594	-0,08962714
0,569	-0,1064453	-0,08796855
0,57	-0,1285156	-0,0864601
0,571	-0,1059766	-0,08516958
0,572	-0,05792969	-0,08415209
0,573	-0,01890625	-0,08345022
0,574	-0,01917969	-0,08309792
0,575	-0,0690625	-0,08310828
0,576	-0,1089453	-0,08350367
0,577	-0,09785156	-0,08428568
0,578	-0,0678125	-0,08543837
0,579	-0,05902344	-0,08692741
0,58	-0,08367188	-0,0887001
0,581	-0,08652344	-0,09067862
0,582	-0,04285156	-0,09281088
0,583	-0,01988281	-0,09501586
0,584	-0,02828125	-0,09721654
0,585	-0,06410156	-0,09933276
0,586	-0,1571875	-0,1012811
0,587	-0,2369141	-0,1029759
0,588	-0,2336328	-0,1043226
0,589	-0,1485938	-0,1052752
0,59	-0,03535156	-0,1057709
0,591	-0,03410156	-0,1057694
0,592	-0,1596484	-0,1052436
0,593	-0,2642578	-0,1041803
0,594	-0,2525391	-0,1025809
0,595	-0,1542969	-0,1004604
0,596	-0,06203125	-0,09786923
0,597	0,003984375	-0,09485993
0,598	0,0459375	-0,09149908
0,599	0,02054687	-0,08786236
0,6	-0,04824219	-0,08403458
0,601	-0,09453125	-0,08010994
0,602	-0,09757813	-0,07618762
0,603	-0,06148438	-0,07238644
0,604	-0,02125	-0,06880304
0,605	-0,01917969	-0,06552892
0,606	-0,05097656	-0,06264544
0,607	-0,08894531	-0,06022332
0,608	-0,09558594	-0,05832168
0,609	-0,07726563	-0,0569723
0,61	-0,07898437	-0,05624413
0,611	-0,07238281	-0,05612906
0,612	-0,05726563	-0,05661601
0,613	-0,08335937	-0,05767733
0,614	-0,1000391	-0,0592681
0,615	-0,07214844	-0,06132466
0,616	-0,04738281	-0,06374057
0,617	-0,0446875	-0,06648628
0,618	-0,05363281	-0,06943079
0,619	-0,06144531	-0,07246616
0,62	-0,06144531	-0,07548512
0,621	-0,0675	-0,07838043
0,622	-0,08585938	-0,0810441
0,623	-0,08964844	-0,08334924
0,624	-0,08792969	-0,08525261
0,625	-0,1119141	-0,0866501
0,626	-0,1153906	-0,08747586
0,627	-0,07460938	-0,08768352
0,628	-0,05179687	-0,08724604
0,629	-0,06371094	-0,08615587
0,63	-0,08445313	-0,08442305
0,631	-0,1092969	-0,08208889
0,632	-0,1182813	-0,07919969
0,633	-0,1066797	-0,07581952
0,634	-0,09511719	-0,07202714
0,635	-0,07492187	-0,06791668
0,636	-0,04132813	-0,06359823
0,637	-0,02472656	-0,0592059
0,638	-0,0475	-0,05484118
0,639	-0,07492187	-0,050632
0,64	-0,04816406	-0,04668966
0,641	0,02054687	-0,0431179
0,642	0,05273438	-0,0400142
0,643	0,01140625	-0,03746986
0,644	-0,04445313	-0,0355717
0,645	-0,05941406	-0,03436845
0,646	-0,07089844	-0,03389535
0,647	-0,08800781	-0,03416481
0,648	-0,06449219	-0,03517142
0,649	-0,0334375	-0,03689239
0,65	-0,04070313	-0,03928651
0,651	-0,06355469	-0,04228215
0,652	-0,07800781	-0,04582588
0,653	-0,085625	-0,04980494
0,654	-0,07304687	-0,05411289
0,655	-0,02269531	-0,05863978
0,656	0,00875	-0,06327094
0,657	-0,01804688	-0,06788537
0,658	-0,03992188	-0,07234034
0,659	-0,04074219	-0,07655568
0,66	-0,08605469	-0,08040277
0,661	-0,1647266	-0,08378499
0,662	-0,1774609	-0,08662152
0,663	-0,1189453	-0,08884558
0,664	-0,07441406	-0,0904035
0,665	-0,07550781	-0,09125298
0,666	-0,0878125	-0,09138496
0,667	-0,07882812	-0,09080606
0,668	-0,07226563	-0,08954209
0,669	-0,0809375	-0,08763419
0,67	-0,08128906	-0,08513841
0,671	-0,07464844	-0,08212653
0,672	-0,07144531	-0,07870092
0,673	-0,06230469	-0,07492449
0,674	-0,05097656	-0,07092573
0,675	-0,03792969	-0,0668154
0,676	-0,0175	-0,06270048
0,677	-0,0446875	-0,05868579
0,678	-0,09769531	-0,05487588
0,679	-0,09621094	-0,05139017
0,68	-0,08367188	-0,04828208
0,681	-0,08578125	-0,04564964
0,682	-0,06773437	-0,04355717
0,683	-0,03863281	-0,04205126
0,684	-0,01726563	-0,04116225
0,685	-0,004023438	-0,04090531
0,686	-0,01152344	-0,04127688
0,687	-0,04867188	-0,04226897
0,688	-0,07605469	-0,04384204
0,689	-0,05992187	-0,04594819
0,69	-0,02398438	-0,04852787
0,691	-0,02121094	-0,051509
0,692	-0,0571875	-0,05480579
0,693	-0,09949219	-0,05829505
0,694	-0,1196094	-0,06194149
0,695	-0,08523438	-0,06561868
0,696	-0,034375	-0,06923028
0,697	-0,030625	-0,07268488
0,698	-0,05953125	-0,07589278
0,699	-0,07382813	-0,07876368
0,7	-0,05925781	-0,08118112
0,701	-0,04828125	-0,08314583
0,702	-0,05199219	-0,0845785
0,703	-0,05433594	-0,08544031
0,704	-0,06140625	-0,0857051
0,705	-0,09011719	-0,08535684
0,706	-0,1522656	-0,08438882
0,707	-0,2008203	-0,08279575
0,708	-0,1779297	-0,08062833
0,709	-0,1087109	-0,07792284
0,71	-0,06117188	-0,07473054
0,711	-0,06519531	-0,07110884
0,712	-0,05925781	-0,06712212
0,713	-0,007773438	-0,06284356
0,714	0,02203125	-0,05836636
0,715	-0,003632813	-0,0537521
0,716	-0,05070313	-0,04910046
0,717	-0,06550781	-0,04449479
0,718	-0,02582031	-0,04001431
0,719	0,001992188	-0,03573764
0,72	-0,02957031	-0,03174555
0,721	-0,05316406	-0,02813387
0,722	-0,02742188	-0,02493559
0,723	-0,01777344	-0,02221061
0,724	-0,03863281	-0,01999654
0,725	-0,03	-0,01832395
0,726	-0,002109375	-0,01721926
0,727	-0,002148438	-0,01670522
0,728	-0,01597656	-0,01679859
0,729	-0,02105469	-0,01749472
0,73	-0,03539063	-0,01875814
0,731	-0,05785156	-0,02055145
0,732	-0,06917969	-0,02283553
0,733	-0,06800781	-0,02556931
0,734	-0,05488281	-0,02870704
0,735	-0,03738281	-0,0321815
0,736	-0,02269531	-0,03596141
0,737	-0,008164062	-0,03994716
0,738	0,00109375	-0,04405945
0,739	-0,0096875	-0,04822464
0,74	-0,04117188	-0,05237217
0,741	-0,07230469	-0,05643108
0,742	-0,07820312	-0,06031605
0,743	-0,06019531	-0,06398689
0,744	-0,06007813	-0,06736546
0,745	-0,07394531	-0,07039566
0,746	-0,054375	-0,07303051
0,747	-0,02265625	-0,07523017
0,748	-0,02632813	-0,07696064
0,749	-0,0628125	-0,07819835
0,75	-0,08992187	-0,07891811
0,751	-0,09933594	-0,0791325
0,752	-0,1237109	-0,07885616
0,753	-0,1354688	-0,07810935
0,754	-0,1041016	-0,07691822
0,755	-0,08058594	-0,07531657
0,756	-0,09730469	-0,07336602
0,757	-0,100625	-0,07107397
0,758	-0,06011719	-0,06853436
0,759	-0,02496094	-0,06581958
0,76	-0,02628906	-0,06299831
0,761	-0,04179688	-0,06013716
0,762	-0,03769531	-0,05730329
0,763	-0,04039062	-0,05458175
0,764	-0,07199219	-0,0520006
0,765	-0,0803125	-0,04964755
0,766	-0,06511719	-0,04758288
0,767	-0,06140625	-0,04585476
0,768	-0,05351563	-0,04450012
0,769	-0,02703125	-0,04354574
0,77	-0,01640625	-0,04300605
0,771	-0,02285156	-0,0428974
0,772	-0,01652344	-0,04321516
0,773	-0,0446875	-0,04394655
0,774	-0,09175781	-0,04506736
0,775	-0,08230469	-0,04654092
0,776	-0,06015625	-0,04831723
0,777	-0,055	-0,05030995
0,778	-0,02875	-0,05251878
0,779	-0,01300781	-0,05485209
0,78	-0,03390625	-0,05724132
0,781	-0,04824219	-0,05961637
0,782	-0,05804687	-0,06190303
0,783	-0,08027344	-0,06402143
0,784	-0,07773438	-0,06585286
0,785	-0,05148437	-0,0674263
0,786	-0,04054688	-0,06865558
0,787	-0,05570312	-0,06949767
0,788	-0,09554688	-0,06991594
0,789	-0,1351563	-0,06987686
0,79	-0,1478125	-0,06934904
0,791	-0,1328516	-0,06826976
0,792	-0,08191406	-0,06674165
0,793	-0,01367188	-0,06475545
0,794	0,01453125	-0,06234241
0,795	-0,005820313	-0,05953601
0,796	-0,01847656	-0,05636913
0,797	-0,002226563	-0,05287381
0,798	0,007851563	-0,04904976
0,799	0,0034375	-0,04504808
0,8	-0,02074219	-0,04090351
0,801	-0,07964844	-0,03667741
0,802	-0,1245313	-0,03242316
0,803	-0,1191406	-0,0281848
0,804	-0,09703125	-0,02399748
0,805	-0,07785156	-0,01985681
0,806	-0,05429688	-0,01588737
0,807	-0,03226562	-0,01208343
0,808	-0,02121094	-0,008461295
0,809	-0,008945313	-0,0050289
0,81	0,02113281	-0,001786786
0,811	0,06699219	0,001271147
0,812	0,09164063	0,004185594
0,813	0,07527344	0,006891788
0,814	0,05253906	0,009453256
0,815	0,03390625	0,01190294
0,816	0,005117188	0,01426839
0,817	-0,008476562	0,01656933
0,818	0,02027344	0,01881727
0,819	0,048125	0,02103629
0,82	0,0453125	0,02318183
0,821	0,04691406	0,02530776
0,822	0,04574219	0,02743333
0,823	0,02136719	0,02955994
0,824	-0,003789062	0,0316686
0,825	-0,02957031	0,03372133
0,826	-0,04390625	0,03567062
0,827	-0,01617187	0,03746325
0,828	0,02613281	0,03909808
0,829	0,05796875	0,04055533
0,83	0,07234375	0,04179993
0,831	0,05796875	0,04277976
0,832	0,02742188	0,04342864
0,833	-0,0071875	0,0436613
0,834	-0,008046875	0,04346879
0,835	0,04164063	0,04283816
0,836	0,08199219	0,04176558
0,837	0,09289063	0,04024242
0,838	0,09609375	0,0382532
0,839	0,074375	0,03577847
0,84	0,0459375	0,03277206
0,841	0,05007813	0,02933789
0,842	0,04324219	0,02550301
0,843	0,01351563	0,02132293
0,844	0,01601562	0,01684984
0,845	0,008476562	0,01212992
0,846	-0,05121094	0,007204159
0,847	-0,07390625	0,002069095
0,848	-0,03164062	-0,003092034
0,849	-0,003789062	-0,008251076
0,85	-0,00453125	-0,0133461
0,851	-0,00953125	-0,01832494
0,852	-0,009570313	-0,023147
0,853	0,007539062	-0,02778372
0,854	0,005664062	-0,03226441
0,855	-0,02582031	-0,03644039
0,856	-0,03144531	-0,04035914
0,857	-0,011875	-0,04403044
0,858	-0,01046875	-0,04747002
0,859	-0,03390625	-0,05069833
0,86	-0,05464844	-0,05374042
0,861	-0,07222656	-0,05666645
0,862	-0,09753906	-0,05939941
0,863	-0,09785156	-0,06204225
0,864	-0,07410156	-0,06465002
0,865	-0,06214844	-0,06726597
0,866	-0,07507812	-0,06991839
0,867	-0,09378906	-0,07262017
0,868	-0,0990625	-0,0754045
0,869	-0,1086719	-0,0781713
0,87	-0,1228516	-0,08097511
0,871	-0,1339844	-0,08381614
0,872	-0,1416016	-0,08667408
0,873	-0,1392188	-0,08950739
0,874	-0,116875	-0,0922557
0,875	-0,0559375	-0,09488346
0,876	-0,007578125	-0,09720485
0,877	-0,04351563	-0,09921151
0,878	-0,1002344	-0,1008477
0,879	-0,09027344	-0,1020528
0,88	-0,04234375	-0,102766
0,881	-0,00875	-0,1029326
0,882	-0,0121875	-0,1025539
0,883	-0,03785156	-0,1014886
0,884	-0,04699219	-0,09979238
0,885	-0,06453125	-0,0974887
0,886	-0,1301953	-0,09461245
0,887	-0,1922266	-0,09121446
0,888	-0,1897656	-0,08736832
0,889	-0,1465234	-0,08318279
0,89	-0,09453125	-0,07877512
0,891	-0,04984375	-0,07431552
0,892	-0,05722656	-0,06996614
0,893	-0,1158984	-0,06588002
0,894	-0,1452344	-0,06219594
0,895	-0,1053516	-0,05903761
0,896	-0,04699219	-0,05642416
0,897	-0,005273438	-0,05475866
0,898	0,007265625	-0,05410722
0,899	-0,04484375	-0,05458771
0,9	-0,1142188	-0,0562606
0,901	-0,1061719	-0,05910865
0,902	-0,05214844	-0,06302679
0,903	-0,035	-0,06760396
0,904	-0,06488281	-0,07332679
0,905	-0,1086719	-0,07987346
0,906	-0,1144922	-0,08708848
0,907	-0,08632813	-0,09474161
0,908	-0,08101563	-0,1024988
0,909	-0,08976563	-0,1099107
0,91	-0,08359375	-0,1161229
0,911	-0,0753125	-0,1215567
0,912	-0,08210937	-0,1255887
0,913	-0,1120703	-0,1278838
0,914	-0,1434375	-0,1280812
0,915	-0,1315234	-0,1257717
0,916	-0,093125	-0,1204962
0,917	-0,08992187	-0,1114955
0,918	-0,09546875	-0,09924856
0,919	-0,06617188	-0,08334343
0,92	-0,04121094	-0,06368596
0,921	-0,03050781	-0,04022767
0,922	-0,006171875	-0,0129636
0,923	0,02996094	0,0180562
0,924	0,05503906	0,05286195
0,925	0,05933594	0,09072312
0,926	0,0771875	0,1314448
0,927	0,1257813	0,1746254
0,928	0,1767969	0,2197976
0,929	0,2244922	0,2664079
0,93	0,2814453	0,3138021
0,931	0,3357031	0,3612649
0,932	0,3784766	0,4079392
0,933	0,4163672	0,4532875
0,934	0,4619531	0,496731
0,935	0,5289063	0,5376632
0,936	0,5828516	0,5754192
0,937	0,6007422	0,6092729
0,938	0,6251953	0,6384616
0,939	0,6649609	0,6624644
0,94	0,7037891	0,6811225
0,941	0,7442578	0,6943055
0,942	0,7674609	0,7018814
0,943	0,768125	0,7036915
0,944	0,7703906	0,6995672
0,945	0,7740625	0,6893848
0,946	0,764375	0,6733082
0,947	0,7369922	0,6519211
0,948	0,6900391	0,6257742
0,949	0,6271484	0,5953755
0,95	0,5544141	0,5611832
0,951	0,4697656	0,5236366
0,952	0,3835547	0,4831951
0,953	0,3166797	0,4405568
0,954	0,2767969	0,3965903
0,955	0,271875	0,3520655
0,956	0,2760547	0,3076474
0,957	0,2551953	0,263906
0,958	0,2199219	0,2213438
0,959	0,1587891	0,1803281
0,96	0,09621094	0,1416223
0,961	0,08550781	0,105568
0,962	0,07414063	0,07249129
0,963	0,04757812	0,04262211
0,964	0,055	0,01610693
0,965	0,05710938	-0,006981201
0,966	0,03269531	-0,02685929
0,967	-0,00390625	-0,04297515
0,968	-0,06132813	-0,05581617
0,969	-0,1141406	-0,06566422
0,97	-0,1253125	-0,07280179
0,971	-0,07832031	-0,07750818
0,972	-0,01429688	-0,08007147
0,973	0,002265625	-0,08109787
0,974	-0,03	-0,08013227
0,975	-0,08871094	-0,07802822
0,976	-0,1158203	-0,0752539
0,977	-0,06507813	-0,07218145
0,978	-0,01703125	-0,06909454
0,979	-0,03167969	-0,06621373
0,98	-0,05960937	-0,06398666
0,981	-0,078125	-0,06186144
0,982	-0,09632813	-0,0604142
0,983	-0,08414062	-0,05984691
0,984	-0,03570313	-0,06025566
0,985	-0,02929688	-0,06164166
0,986	-0,09539063	-0,06393566
0,987	-0,1298828	-0,06718611
0,988	-0,101875	-0,0708193
0,989	-0,089375	-0,07496255
0,99	-0,09832031	-0,07953635
0,991	-0,1220703	-0,08442081
0,992	-0,1289063	-0,08946095
0,993	-0,08238281	-0,09447989
0,994	-0,08613281	-0,09935788
0,995	-0,1296094	-0,1037597
0,996	-0,07582031	-0,1076568
0,997	-0,02320313	-0,1109751
0,998	-0,09664063	-0,1136565
0,999	-0,1650391	-0,1156557
1	-0,1378125	-0,1169426
1,001	-0,1121875	-0,1175172
1,002	-0,1245313	-0,1173733
1,003	-0,1266406	-0,1165853
1,004	-0,1123828	-0,1152341
1,005	-0,09238281	-0,1134118
1,006	-0,07921875	-0,1112179
1,007	-0,08726562	-0,1087561
1,008	-0,1062109	-0,1061297
1,009	-0,1147656	-0,1034657
1,01	-0,09894531	-0,1008833
1,011	-0,06949219	-0,09848801
1,012	-0,06269531	-0,09636569
1,013	-0,08625	-0,09458038
1,014	-0,1032031	-0,09317403
1,015	-0,09222656	-0,09215871
1,016	-0,076875	-0,09156982
1,017	-0,08316406	-0,09140502
1,018	-0,09207031	-0,09164493
1,019	-0,0846875	-0,09224622
1,02	-0,07800781	-0,09314226
1,021	-0,08476562	-0,09424549
1,022	-0,1078906	-0,0954344
1,023	-0,1141797	-0,09665805
1,024	-0,1111719	-0,09781025
1,025	-0,1608203	-0,0988024
1,026	-0,2086719	-0,09954757
1,027	-0,1958984	-0,09996078
1,028	-0,1633594	-0,09996109
1,029	-0,11875	-0,09945144
1,03	-0,06710937	-0,09845305
1,031	-0,03964844	-0,09691704
1,032	-0,02441406	-0,09483699
1,033	-0,02070312	-0,09222385
1,034	-0,04726562	-0,0891046
1,035	-0,06714844	-0,08552194
1,036	-0,05488281	-0,08151029
1,037	-0,04304687	-0,07721852
1,038	-0,04199219	-0,07270641
1,039	-0,04816406	-0,06806382
1,04	-0,07402344	-0,06338453
1,041	-0,09335938	-0,05876498
1,042	-0,07734375	-0,05430264
1,043	-0,05324219	-0,05006942
1,044	-0,0534375	-0,0462253
1,045	-0,06957031	-0,04281381
1,046	-0,06179688	-0,03988894
1,047	-0,03414063	-0,037491
1,048	-0,03640625	-0,03564658
1,049	-0,06097656	-0,03436724
1,05	-0,05648438	-0,03361796
1,051	-0,02097656	-0,03346047
1,052	-0,002539063	-0,03381531
1,053	0,002109375	-0,03462286
1,054	0,01238281	-0,03581517
1,055	-0,02996094	-0,03731583
1,056	-0,1132813	-0,03903902
1,057	-0,1367188	-0,04085313
1,058	-0,09761719	-0,04276427
1,059	-0,03628906	-0,04463361
1,06	0,03050781	-0,04636918
1,061	0,049375	-0,04788947
1,062	-0,00578125	-0,04912191
1,063	-0,1058984	-0,05000129
1,064	-0,1582422	-0,05043372
1,065	-0,08710938	-0,05048324
1,066	0,00890625	-0,05008673
1,067	0,03339844	-0,04923446
1,068	0,005507812	-0,04793162
1,069	-0,05175781	-0,04619559
1,07	-0,08285156	-0,04405401
1,071	-0,06847656	-0,0415136
1,072	-0,07355469	-0,03871731
1,073	-0,07480469	-0,03569772
1,074	-0,02640625	-0,03251975
1,075	-0,003554688	-0,02924792
1,076	-0,026875	-0,0259442
1,077	-0,04246094	-0,02266693
1,078	-0,04519531	-0,01944193
1,079	-0,01214844	-0,01640788
1,08	0,03394531	-0,01358785
1,081	0,02308594	-0,01102019
1,082	0,005820313	-0,008729873
1,083	0,03183594	-0,006727793
1,084	0,04355469	-0,005010598
1,085	0,01996094	-0,003527479
1,086	-0,002734375	-0,002356652
1,087	-0,01367188	-0,001436733
1,088	-0,01800781	-0,0007320872
1,089	-0,02265625	-0,0001995089
1,09	-0,03855469	0,0002123889
1,091	-0,05316406	0,0005632355
1,092	-0,054375	0,0009617785
1,093	-0,04316406	0,001345635
1,094	-0,02265625	0,001814627
1,095	-0,002382812	0,002419466
1,096	0,008125	0,003204402
1,097	0,00828125	0,004208861
1,098	0,009648438	0,005468452
1,099	0,008789063	0,007060735
1,1	0,02953125	0,008866556
1,101	0,0765625	0,0109402
1,102	0,08480469	0,01327862
1,103	0,0696875	0,01586957
1,104	0,07078125	0,01869393
1,105	0,06210938	0,02172758
1,106	0,03765625	0,02498907
1,107	0,01332031	0,0283011
1,108	-0,003125	0,03166999
1,109	-0,03972656	0,03505414
1,11	-0,06261719	0,0384129
1,111	-0,001640625	0,04170879
1,112	0,05476562	0,04490938
1,113	0,03277344	0,04803813
1,114	0,01003906	0,05092107
1,115	0,0346875	0,05358804
1,116	0,07789063	0,05602639
1,117	0,09433594	0,05823183
1,118	0,07847656	0,06021045
1,119	0,07113281	0,06198031
1,12	0,08941406	0,06362708
1,121	0,1121484	0,06501998
1,122	0,1090625	0,06625159
1,123	0,08628906	0,06736183
1,124	0,08035156	0,06839359
1,125	0,083125	0,06939471
1,126	0,07351563	0,07041955
1,127	0,06695313	0,07158393
1,128	0,05980469	0,07278187
1,129	0,05453125	0,07412247
1,13	0,07078125	0,07565148
1,131	0,07648438	0,07740623
1,132	0,05152344	0,07941686
1,133	0,007265625	0,08170783
1,134	-0,02878906	0,08434016
1,135	0,003671875	0,08720171
1,136	0,095	0,09034601
1,137	0,1722266	0,09377228
1,138	0,1955469	0,09746614
1,139	0,1755078	0,1013988
1,14	0,1365625	0,1055281
1,141	0,09230469	0,1098198
1,142	0,08136719	0,1141626
1,143	0,1065625	0,1185414
1,144	0,1371875	0,122914
1,145	0,1616406	0,1272279
1,146	0,1422266	0,1314181
1,147	0,1067188	0,1354064
1,148	0,1244141	0,1391069
1,149	0,1609375	0,142449
1,15	0,1634766	0,1454041
1,151	0,1530859	0,1479412
1,152	0,1527344	0,1500245
1,153	0,1527734	0,15161
1,154	0,1521484	0,1526463
1,155	0,1432422	0,1530717
1,156	0,1291406	0,1528907
1,157	0,1294922	0,1521205
1,158	0,1339063	0,1507846
1,159	0,1347656	0,1489024
1,16	0,1457813	0,1464863
1,161	0,1581641	0,143545
1,162	0,1415234	0,140074
1,163	0,1054297	0,1361606
1,164	0,09746094	0,1318684
1,165	0,1171875	0,1272685
1,166	0,1325	0,1224226
1,167	0,1471484	0,1173829
1,168	0,164375	0,1121948
1,169	0,1635547	0,1068717
1,17	0,1254687	0,1015671
1,171	0,1032813	0,09632851
1,172	0,1435547	0,09122193
1,173	0,1311328	0,08629985
1,174	0,01976563	0,08160028
1,175	-0,06898438	0,07714793
1,176	-0,06546875	0,07289914
1,177	0,01425781	0,06904282
1,178	0,1104688	0,0655391
1,179	0,1633594	0,06239537
1,18	0,1370312	0,05960712
1,181	0,06738281	0,05715466
1,182	0,04230469	0,05500111
1,183	0,05449219	0,05300842
1,184	0,06507813	0,0513724
1,185	0,08074219	0,0499532
1,186	0,08453125	0,0486942
1,187	0,07613281	0,04753562
1,188	0,05757813	0,04640975
1,189	0,006132813	0,04523724
1,19	-0,03535156	0,04383217
1,191	-0,02664063	0,04239104
1,192	0,00984375	0,04074372
1,193	0,04875	0,03882446
1,194	0,07136719	0,03657573
1,195	0,08109375	0,03394434
1,196	0,08089844	0,03087853
1,197	0,06394531	0,02724394
1,198	0,0253125	0,02325692
1,199	-0,02152344	0,01881243
1,2	-0,02949219	0,01390338
1,201	-0,005585937	0,008536298
1,202	0,00328125	0,002729899
1,203	-0,01101562	-0,003486006
1,204	-0,03234375	-0,01013598
1,205	-0,03679688	-0,01697241
1,206	-0,03226562	-0,02400875
1,207	-0,03640625	-0,03118562
1,208	-0,04027344	-0,03843533
1,209	-0,04929688	-0,04568117
1,21	-0,06082031	-0,05283818
1,211	-0,05859375	-0,05986994
1,212	-0,05652344	-0,06652966
1,213	-0,06835938	-0,07281501
1,214	-0,06785156	-0,07867107
1,215	-0,03003906	-0,08404378
1,216	0,01519531	-0,08887919
1,217	0,02339844	-0,09312594
1,218	-0,02261719	-0,09679617
1,219	-0,1129688	-0,09970375
1,22	-0,1834375	-0,1019291
1,221	-0,1972656	-0,1034988
1,222	-0,1974219	-0,1044414
1,223	-0,1584766	-0,1047878
1,224	-0,07664063	-0,1045762
1,225	-0,07890625	-0,1039159
1,226	-0,1588672	-0,1027084
1,227	-0,178125	-0,101122
1,228	-0,1242188	-0,09925751
1,229	-0,07265625	-0,0972072
1,23	-0,0575	-0,09505656
1,231	-0,07515625	-0,09288912
1,232	-0,09230469	-0,09083863
1,233	-0,07757812	-0,08885631
1,234	-0,06167969	-0,08709282
1,235	-0,06902344	-0,08563139
1,236	-0,07652344	-0,08453598
1,237	-0,08503906	-0,08385283
1,238	-0,09617188	-0,08361339
1,239	-0,08765625	-0,08386025
1,24	-0,0678125	-0,08453431
1,241	-0,05398438	-0,0856654
1,242	-0,05027344	-0,08724331
1,243	-0,06417969	-0,08924158
1,244	-0,08242188	-0,09161726
1,245	-0,09480469	-0,09431163
1,246	-0,1030859	-0,09725215
1,247	-0,1008984	-0,1003587
1,248	-0,1051172	-0,1035571
1,249	-0,1210547	-0,1067719
1,25	-0,1249609	-0,1099267
1,251	-0,1185938	-0,1129426
1,252	-0,1185547	-0,1157378
1,253	-0,1298828	-0,1182228
1,254	-0,1441406	-0,1203447
1,255	-0,1534375	-0,1220442
1,256	-0,1690625	-0,1232801
1,257	-0,1828906	-0,1240216
1,258	-0,15625	-0,1242476
1,259	-0,1056641	-0,1239465
1,26	-0,08636719	-0,1231194
1,261	-0,09128906	-0,1217825
1,262	-0,08199219	-0,1199763
1,263	-0,04761719	-0,1177476
1,264	-0,04546875	-0,1151499
1,265	-0,1300391	-0,1122434
1,266	-0,2086328	-0,1090966
1,267	-0,1991797	-0,1057952
1,268	-0,13375	-0,1024017
1,269	-0,05160156	-0,09901349
1,27	-0,011875	-0,09571273
1,271	-0,02402344	-0,09257477
1,272	-0,03871094	-0,08966926
1,273	-0,05410156	-0,08706136
1,274	-0,09359375	-0,08481442
1,275	-0,1303125	-0,08297244
1,276	-0,1131641	-0,08157533
1,277	-0,07984375	-0,08064689
1,278	-0,07980469	-0,08019808
1,279	-0,08738281	-0,08022757
1,28	-0,08964844	-0,08072164
1,281	-0,1026172	-0,08164241
1,282	-0,1205859	-0,08298221
1,283	-0,1238672	-0,08467579
1,284	-0,1154297	-0,08666484
1,285	-0,1019531	-0,08888693
1,286	-0,08660156	-0,09127473
1,287	-0,08070313	-0,09375455
1,288	-0,07585938	-0,09622725
1,289	-0,06335937	-0,09866601
1,29	-0,06550781	-0,1009726
1,291	-0,09167969	-0,103077
1,292	-0,1176172	-0,1049184
1,293	-0,1288672	-0,1064434
1,294	-0,1278516	-0,107605
1,295	-0,1163672	-0,1083495
1,296	-0,1028516	-0,1086861
1,297	-0,09425781	-0,1085875
1,298	-0,08996094	-0,1080516
1,299	-0,1103906	-0,1070874
1,3	-0,1503906	-0,1057149
1,301	-0,1351563	-0,1039645
1,302	-0,03417969	-0,1018769
1,303	0,07105469	-0,099508
1,304	0,035	-0,09691858
1,305	-0,1603516	-0,09417129
1,306	-0,2613281	-0,09132972
1,307	-0,1595703	-0,08845899
1,308	-0,08148437	-0,08562654
1,309	-0,09898437	-0,08290517
1,31	-0,1046484	-0,08035458
1,311	-0,07710938	-0,07803874
1,312	-0,02859375	-0,07600859
1,313	-0,0271875	-0,07430542
1,314	-0,1089844	-0,07296165
1,315	-0,1402734	-0,0720013
1,316	-0,07949219	-0,07143451
1,317	-0,04921875	-0,07127939
1,318	-0,06890625	-0,07152019
1,319	-0,07914063	-0,07213738
1,32	-0,07554687	-0,07310323
1,321	-0,07179687	-0,07438147
1,322	-0,06640625	-0,07592669
1,323	-0,06488281	-0,07766893
1,324	-0,0709375	-0,07958919
1,325	-0,07136719	-0,08160509
1,326	-0,06324219	-0,08365197
1,327	-0,05066406	-0,08566792
1,328	-0,04289063	-0,08759267
1,329	-0,06367188	-0,0893663
1,33	-0,1044531	-0,09091391
1,331	-0,1266016	-0,09222706
1,332	-0,1236328	-0,09324559
1,333	-0,1142969	-0,0939357
1,334	-0,1097656	-0,09427385
1,335	-0,1063672	-0,09424565
1,336	-0,09628906	-0,09384542
1,337	-0,09011719	-0,09306901
1,338	-0,09589844	-0,09195396
1,339	-0,1017578	-0,09052041
1,34	-0,09660156	-0,08880209
1,341	-0,078125	-0,08683826
1,342	-0,06152344	-0,08467355
1,343	-0,0671875	-0,08235818
1,344	-0,0846875	-0,07994706
1,345	-0,09867188	-0,07750492
1,346	-0,1016797	-0,07509274
1,347	-0,07808594	-0,0727674
1,348	-0,04902344	-0,07058034
1,349	-0,04859375	-0,06857795
1,35	-0,06535156	-0,06680187
1,351	-0,06777344	-0,0652856
1,352	-0,05027344	-0,06406812
1,353	-0,02558594	-0,06316528
1,354	-0,01199219	-0,06258641
1,355	-0,05207031	-0,06233167
1,356	-0,1203516	-0,06239237
1,357	-0,13125	-0,06275076
1,358	-0,1066406	-0,06337122
1,359	-0,0809375	-0,06424085
1,36	-0,03691406	-0,06530408
1,361	-0,04375	-0,06651214
1,362	-0,1029297	-0,06781569
1,363	-0,09699219	-0,06916505
1,364	-0,03378906	-0,07050964
1,365	-0,005351563	-0,07179055
1,366	-0,02828125	-0,07297602
1,367	-0,06367188	-0,07400542
1,368	-0,07980469	-0,07483507
1,369	-0,06835938	-0,07543161
1,37	-0,0590625	-0,07577241
1,371	-0,08027344	-0,07584535
1,372	-0,09863281	-0,0756493
1,373	-0,1041016	-0,07518652
1,374	-0,1199609	-0,07446597
1,375	-0,1300781	-0,07350586
1,376	-0,1176563	-0,07233439
1,377	-0,08113281	-0,07099021
1,378	-0,04035156	-0,06952239
1,379	-0,02117188	-0,06799624
1,38	-0,01457031	-0,06645188
1,381	-0,01625	-0,06495223
1,382	-0,03121094	-0,06355206
1,383	-0,04886719	-0,06230436
1,384	-0,06824219	-0,0612604
1,385	-0,088125	-0,06046928
1,386	-0,09308594	-0,05998084
1,387	-0,081875	-0,05981753
1,388	-0,06742188	-0,06000678
1,389	-0,05574219	-0,06056137
1,39	-0,06355469	-0,0614836
1,391	-0,09742188	-0,06276488
1,392	-0,1121484	-0,06438486
1,393	-0,09230469	-0,0663089
1,394	-0,07351563	-0,06849742
1,395	-0,06136719	-0,0708974
1,396	-0,05367188	-0,07345245
1,397	-0,0584375	-0,07610159
1,398	-0,06589844	-0,07877864
1,399	-0,06683594	-0,081412
1,4	-0,06628906	-0,08392349
1,401	-0,06414063	-0,08624483
1,402	-0,05257813	-0,08831005
1,403	-0,02429687	-0,09006292
1,404	0,01710938	-0,09145528
1,405	0,05394531	-0,092447
1,406	0,03007813	-0,09300682
1,407	-0,1515234	-0,09311861
1,408	-0,4048828	-0,09276429
1,409	-0,4510547	-0,09196208
1,41	-0,2644922	-0,09073593
1,411	-0,060625	-0,08911954
1,412	0,05445312	-0,08715669
1,413	0,05207031	-0,08490228
1,414	-0,01367188	-0,08243118
1,415	-0,04300781	-0,07979896
1,416	-0,06183594	-0,07709897
1,417	-0,09960938	-0,07441393
1,418	-0,09867188	-0,07182264
1,419	-0,05285156	-0,06939987
1,42	-0,03128906	-0,06721666
1,421	-0,04371094	-0,06533992
1,422	-0,04527344	-0,0638299
1,423	-0,05023437	-0,06273728
1,424	-0,0740625	-0,06209744
1,425	-0,07898437	-0,06193005
1,426	-0,06449219	-0,06223829
1,427	-0,055625	-0,06300816
1,428	-0,053125	-0,06419521
1,429	-0,05671875	-0,0657923
1,43	-0,06546875	-0,06773229
1,431	-0,07378906	-0,06995174
1,432	-0,078125	-0,07237852
1,433	-0,08386719	-0,0749308
1,434	-0,09378906	-0,07751653
1,435	-0,09890625	-0,08001641
1,436	-0,09316406	-0,08238369
1,437	-0,08445313	-0,08451006
1,438	-0,08328125	-0,08631437
1,439	-0,09585937	-0,08772488
1,44	-0,1322656	-0,08867868
1,441	-0,1674219	-0,08912206
1,442	-0,1510938	-0,08900081
1,443	-0,09	-0,08832569
1,444	-0,02351563	-0,0870833
1,445	0,02035156	-0,08528715
1,446	0,01894531	-0,08296552
1,447	-0,01355469	-0,08016123
1,448	-0,04988281	-0,0769324
1,449	-0,09246094	-0,07334865
1,45	-0,1511719	-0,06951287
1,451	-0,1723047	-0,06551825
1,452	-0,089375	-0,06146262
1,453	-0,004101563	-0,05744285
1,454	-0,01425781	-0,05355466
1,455	-0,04316406	-0,0498926
1,456	-0,04453125	-0,04653938
1,457	-0,03683594	-0,04360947
1,458	-0,03488281	-0,04116436
1,459	-0,04445313	-0,03925841
1,46	-0,04285156	-0,0379287
1,461	-0,0378125	-0,03719424
1,462	-0,05175781	-0,037055
1,463	-0,06664062	-0,03746491
1,464	-0,07265625	-0,03846359
1,465	-0,07207031	-0,03997211
1,466	-0,06246094	-0,04192543
1,467	-0,05480469	-0,04424626
1,468	-0,04816406	-0,04684341
1,469	-0,03488281	-0,0496104
1,47	-0,03136719	-0,05238666
1,471	-0,04226563	-0,05516799
1,472	-0,04214844	-0,05780299
1,473	-0,03128906	-0,06018823
1,474	-0,02707031	-0,06222788
1,475	-0,02691406	-0,0638309
1,476	-0,0346875	-0,06491003
1,477	-0,05382813	-0,06534383
1,478	-0,07078125	-0,06519294
1,479	-0,07582031	-0,06438996
1,48	-0,07707031	-0,0629247
1,481	-0,08109375	-0,06080203
1,482	-0,07742188	-0,05803917
1,483	-0,05742188	-0,05466507
1,484	-0,02050781	-0,05069082
1,485	0,02378906	-0,04627504
1,486	0,03828125	-0,04147389
1,487	-0,02714844	-0,03637719
1,488	-0,1441016	-0,03107575
1,489	-0,2128906	-0,02566018
1,49	-0,1848047	-0,0202208
1,491	-0,08011719	-0,01482352
1,492	0,00890625	-0,009631389
1,493	0,03511719	-0,004703223
1,494	0,06695313	-0,0001077573
1,495	0,1024219	0,004099399
1,496	0,1041016	0,007874839
1,497	0,09	0,01118707
1,498	0,05636719	0,01404018
1,499	-0,009335938	0,01636493
1,5	-0,07359375	0,0182092
1,501	-0,06484375	0,01960669
1,502	0,01847656	0,0205967
1,503	0,09066406	0,02122195
1,504	0,09542969	0,02152859
1,505	0,04136719	0,02158697
1,506	-0,006875	0,02140702
1,507	0,00875	0,02109825
1,508	0,04996094	0,02073841
1,509	0,05355469	0,02038973
1,51	0,03085938	0,02009684
1,511	0,01753906	0,01988799
1,512	0,02257813	0,0197823
1,513	0,03117188	0,01979129
1,514	0,02101563	0,01996149
1,515	-0,000703125	0,02031304
1,516	-0,01632812	0,02084188
1,517	-0,030625	0,02151769
1,518	-0,05003906	0,02228609
1,519	-0,0646875	0,02305352
1,52	-0,05117187	0,02382127
1,521	-0,0021875	0,02453834
1,522	0,05777344	0,02516335
1,523	0,09617188	0,02564241
1,524	0,08800781	0,0259063
1,525	0,04246094	0,02587206
1,526	0,002773437	0,02540871
1,527	-0,0001171875	0,02457129
1,528	0,02886719	0,02329375
1,529	0,060625	0,02155428
1,53	0,07523438	0,01933327
1,531	0,06847656	0,01661022
1,532	0,04503906	0,0133643
1,533	0,01691406	0,009535052
1,534	-0,00734375	0,005259196
1,535	-0,02699219	0,0005283146
1,536	-0,03996094	-0,004617856
1,537	-0,019375	-0,01013479
1,538	0,03859375	-0,01597386
1,539	0,05203125	-0,02208174
1,54	-0,01660156	-0,02843168
1,541	-0,06519531	-0,03486072
1,542	-0,04382813	-0,04134003
1,543	-0,0128125	-0,04781011
1,544	-0,005625	-0,0542105
1,545	-0,05699219	-0,06047688
1,546	-0,1481641	-0,06653967
1,547	-0,1663672	-0,07235079
1,548	-0,1259766	-0,07777192
1,549	-0,1175781	-0,08279875
1,55	-0,1236719	-0,087403
1,551	-0,1125781	-0,09155508
1,552	-0,09054687	-0,09522089
1,553	-0,084375	-0,09836185
1,554	-0,1151953	-0,1009758
1,555	-0,1495313	-0,1029307
1,556	-0,1503516	-0,1042805
1,557	-0,1243359	-0,1050376
1,558	-0,09691406	-0,1052113
1,559	-0,08066406	-0,1048097
1,56	-0,06320312	-0,1038442
1,561	-0,04703125	-0,1023931
1,562	-0,05054687	-0,1003243
1,563	-0,05230469	-0,09775921
1,564	-0,03933594	-0,0947559
1,565	-0,03527344	-0,09137116
1,566	-0,04429687	-0,08766698
1,567	-0,05511719	-0,08371892
1,568	-0,05746094	-0,07967171
1,569	-0,05375	-0,07548996
1,57	-0,05886719	-0,07134308
1,571	-0,07460938	-0,06734366
1,572	-0,08210937	-0,06359684
1,573	-0,07972656	-0,06020331
1,574	-0,08953125	-0,05726407
1,575	-0,1019531	-0,0548611
1,576	-0,1077344	-0,05317743
1,577	-0,1006641	-0,05231363
1,578	-0,08703125	-0,05237105
1,579	-0,1125781	-0,0534179
1,58	-0,1271875	-0,05547804
1,581	-0,08183594	-0,05852551
1,582	-0,04816406	-0,06233575
1,583	-0,05144531	-0,06729571
1,584	-0,06640625	-0,07323987
1,585	-0,08316406	-0,08011322
1,586	-0,09953125	-0,08780012
1,587	-0,09164063	-0,09609742
1,588	-0,04492188	-0,1047013
1,589	-0,04300781	-0,1129444
1,59	-0,1157422	-0,1212845
1,591	-0,1736719	-0,1292326
1,592	-0,1749219	-0,136538
1,593	-0,1434766	-0,1428977
1,594	-0,106875	-0,1479263
1,595	-0,08355469	-0,1511465
1,596	-0,09945313	-0,1517033
1,597	-0,1269922	-0,1500769
1,598	-0,1212891	-0,1457379
1,599	-0,1045703	-0,138469
1,6	-0,08859375	-0,1280522
1,601	-0,08828125	-0,1142521
1,602	-0,1040234	-0,09682085
1,603	-0,09964844	-0,07529277
1,604	-0,07214844	-0,05028416
1,605	-0,03578125	-0,02166566
1,606	-0,004414063	0,01042127
1,607	0,02710938	0,04578738
1,608	0,06320312	0,08418753
1,609	0,09484375	0,1253045
1,61	0,1357422	0,1688395
1,611	0,1876953	0,2139864
1,612	0,2410156	0,2603709
1,613	0,2932812	0,3074855
1,614	0,3289844	0,3547735
1,615	0,3526172	0,4016006
1,616	0,4021094	0,4472423
1,617	0,4775781	0,4909115
1,618	0,5253125	0,5318586
1,619	0,5466797	0,5696672
1,62	0,5820313	0,6039112
1,621	0,6187109	0,6341432
1,622	0,6608594	0,6598631
1,623	0,7160156	0,6805227
1,624	0,7489844	0,6955637
1,625	0,7651562	0,7047104
1,626	0,778125	0,7081004
1,627	0,7683984	0,7058735
1,628	0,7482422	0,6981468
1,629	0,7400781	0,6849966
1,63	0,7475781	0,6664824
1,631	0,7374609	0,642707
1,632	0,6632813	0,6140413
1,633	0,5733203	0,5812307
1,634	0,5226953	0,5449521
1,635	0,4729297	0,5058128
1,636	0,3715625	0,4643512
1,637	0,2592578	0,4210701
1,638	0,2391797	0,3764463
1,639	0,2844141	0,331236
1,64	0,2957031	0,2861757
1,641	0,2577344	0,2419233
1,642	0,1930078	0,1990327
1,643	0,1391406	0,1579675
1,644	0,1246094	0,1191241
1,645	0,1208594	0,08271101
1,646	0,08316406	0,04945584
1,647	0,01398438	0,01942161
1,648	-0,04074219	-0,007266449
1,649	-0,06714844	-0,03054459
1,65	-0,09421875	-0,05039917
1,651	-0,1094141	-0,06686526
1,652	-0,08632813	-0,08028663
1,653	-0,04683594	-0,09012562
1,654	-0,03765625	-0,09703842
1,655	-0,06261719	-0,1014017
1,656	-0,07269531	-0,1035548
1,657	-0,06359375	-0,1037997
1,658	-0,05800781	-0,1024209
1,659	-0,05585938	-0,1000017
1,66	-0,0596875	-0,09606483
1,661	-0,05648438	-0,09143671
1,662	-0,04726562	-0,08654591
1,663	-0,05703125	-0,08171515
1,664	-0,07078125	-0,07717135
1,665	-0,065	-0,07307343
1,666	-0,05515625	-0,06977374
1,667	-0,07050781	-0,06674644
1,668	-0,1049609	-0,06446155
1,669	-0,1231641	-0,06306207
1,67	-0,1317969	-0,06260171
1,671	-0,1561719	-0,06305508
1,672	-0,1845313	-0,06433936
1,673	-0,1798828	-0,06645916
1,674	-0,1254297	-0,06895354
1,675	-0,0409375	-0,07188943
1,676	0,02472656	-0,07518546
1,677	0,008515625	-0,07873698
1,678	-0,06476563	-0,0824194
1,679	-0,1113672	-0,08609664
1,68	-0,1080469	-0,08966501
1,681	-0,07363281	-0,09291069
1,682	-0,04902344	-0,09578727
1,683	-0,05136719	-0,09823598
1,684	-0,06183594	-0,1002168
1,685	-0,07800781	-0,1017055
1,686	-0,09898437	-0,1026925
1,687	-0,1154688	-0,1031808
1,688	-0,1280469	-0,1032024
1,689	-0,1394141	-0,1027975
1,69	-0,1205078	-0,1020228
1,691	-0,06964844	-0,1009451
1,692	-0,04484375	-0,09963751
1,693	-0,05304688	-0,0981769
1,694	-0,06546875	-0,0966363
1,695	-0,08730469	-0,09511092
1,696	-0,106875	-0,09367533
1,697	-0,1052344	-0,09239608
1,698	-0,09773437	-0,09132526
1,699	-0,09824219	-0,09049942
1,7	-0,1122266	-0,08993953
1,701	-0,1289453	-0,08964536
1,702	-0,1298047	-0,08963568
1,703	-0,1282813	-0,08990427
1,704	-0,1249219	-0,09043369
1,705	-0,1085547	-0,0911896
1,706	-0,1051563	-0,09212078
1,707	-0,1147656	-0,09316087
1,708	-0,09859375	-0,09421574
1,709	-0,06097656	-0,09526128
1,71	-0,03976562	-0,09622525
1,711	-0,05390625	-0,09705124
1,712	-0,07625	-0,09768231
1,713	-0,09269531	-0,09805986
1,714	-0,1253125	-0,09812447
1,715	-0,1339844	-0,09779392
1,716	-0,1043359	-0,09710526
1,717	-0,07453125	-0,09601932
1,718	-0,05273438	-0,09453204
1,719	-0,08175781	-0,09264781
1,72	-0,1411719	-0,09037732
1,721	-0,1387109	-0,08773738
1,722	-0,08304688	-0,08472548
1,723	-0,0340625	-0,08146039
1,724	-0,01082031	-0,07796726
1,725	-0,006679687	-0,07429998
1,726	-0,02996094	-0,07051359
1,727	-0,07535156	-0,06666327
1,728	-0,1010156	-0,0628041
1,729	-0,09824219	-0,05896468
1,73	-0,07875	-0,05527836
1,731	-0,04632812	-0,05176804
1,732	-0,0328125	-0,04847484
1,733	-0,05832031	-0,04543241
1,734	-0,08265625	-0,04266697
1,735	-0,07875	-0,04019723
1,736	-0,08132813	-0,03800243
1,737	-0,1011719	-0,03617829
1,738	-0,09046875	-0,03468197
1,739	-0,03394531	-0,03349656
1,74	0,01761719	-0,03260017
1,741	0,03273438	-0,03196546
1,742	0,03515625	-0,03155853
1,743	0,03191406	-0,03129862
1,744	0,01699219	-0,03125611
1,745	0,005117188	-0,03133714
1,746	-0,02746094	-0,03149197
1,747	-0,08492188	-0,031675
1,748	-0,1008984	-0,03184295
1,749	-0,06140625	-0,03195256
1,75	-0,01988281	-0,03191854
1,751	-0,008789063	-0,03181945
1,752	-0,03019531	-0,03157294
1,753	-0,05832031	-0,03114729
1,754	-0,06382812	-0,03051962
1,755	-0,06777344	-0,029674
1,756	-0,07355469	-0,02859931
1,757	-0,04289063	-0,02725518
1,758	0,01144531	-0,02573847
1,759	0,05113281	-0,02401791
1,76	0,05671875	-0,02210169
1,761	0,00953125	-0,02000383
1,762	-0,05445312	-0,01774344
1,763	-0,05976563	-0,01534395
1,764	-0,01667969	-0,0128072
1,765	0,008359375	-0,01024071
1,766	0,004453125	-0,007649919
1,767	0,006054688	-0,005065437
1,768	0,01003906	-0,002517224
1,769	0,0008203125	-3,435584e-005
1,77	0,001835938	0,002355216
1,771	0,001171875	0,004653021
1,772	-0,013125	0,006749403
1,773	-0,00984375	0,008651291
1,774	0,005742187	0,01034206
1,775	0,01117188	0,0118105
1,776	-0,004765625	0,01305226
1,777	-0,03179688	0,01407103
1,778	-0,02867187	0,01491885
1,779	0,02027344	0,01549315
1,78	0,06480469	0,01585247
1,781	0,05082031	0,01601933
1,782	0,01597656	0,0160215
1,783	0,004609375	0,01589494
1,784	0,006679687	0,01568603
1,785	0,01519531	0,0155013
1,786	0,0103125	0,01524917
1,787	0,01074219	0,01502882
1,788	0,04125	0,01488823
1,789	0,02816406	0,01487519
1,79	-0,03398438	0,01504038
1,791	-0,02476562	0,01543909
1,792	0,06730469	0,01617974
1,793	0,1186719	0,0171627
1,794	0,07429687	0,01846867
1,795	-0,002773437	0,02012206
1,796	-0,02273438	0,02214131
1,797	0,02636719	0,02454077
1,798	0,050625	0,02733104
1,799	0,03707031	0,03055985
1,8	0,05203125	0,03408944
1,801	0,06390625	0,03793605
1,802	0,03628906	0,04206795
1,803	0,0015625	0,04644832
1,804	-0,03382813	0,05103588
1,805	-0,06101563	0,05578483
1,806	-0,01289063	0,06068189
1,807	0,08722656	0,06555616
1,808	0,1309375	0,07038825
1,809	0,1119922	0,07512298
1,81	0,08496094	0,07970706
1,811	0,07910156	0,08408931
1,812	0,108125	0,0882214
1,813	0,1478906	0,0920981
1,814	0,1477734	0,09556949
1,815	0,1176953	0,09865971
1,816	0,1064844	0,1013598
1,817	0,1132813	0,1036655
1,818	0,1145313	0,1055774
1,819	0,08476562	0,1071029
1,82	0,04195313	0,1082979
1,821	0,05269531	0,1090812
1,822	0,1062891	0,1095511
1,823	0,1345312	0,1097646
1,824	0,1231641	0,1097751
1,825	0,1069141	0,1096315
1,826	0,1071875	0,1093809
1,827	0,1206641	0,1091008
1,828	0,1403516	0,1087628
1,829	0,1499219	0,1084717
1,83	0,1321875	0,1082883
1,831	0,09007812	0,1082572
1,832	0,06214844	0,1084055
1,833	0,06960938	0,1087453
1,834	0,09039063	0,1092852
1,835	0,1183203	0,1099992
1,836	0,1326563	0,110911
1,837	0,126875	0,1120183
1,838	0,1328906	0,1133011
1,839	0,1339063	0,1147202
1,84	0,1171484	0,1162186
1,841	0,1091406	0,117713
1,842	0,1092969	0,1191771
1,843	0,105625	0,1205573
1,844	0,1070703	0,1218072
1,845	0,1095703	0,122874
1,846	0,09433594	0,1236964
1,847	0,07226563	0,124206
1,848	0,0846875	0,1243028
1,849	0,1427344	0,1240236
1,85	0,1832422	0,1233241
1,851	0,1666016	0,1221935
1,852	0,1365234	0,1206237
1,853	0,1221094	0,1186066
1,854	0,1055469	0,1161346
1,855	0,08695313	0,1131635
1,856	0,09882813	0,109839
1,857	0,1245703	0,106174
1,858	0,1000781	0,1022232
1,859	0,06222656	0,09803857
1,86	0,1021484	0,0936665
1,861	0,1726172	0,08914749
1,862	0,1900391	0,08446405
1,863	0,1756641	0,07983046
1,864	0,1447266	0,07525823
1,865	0,08023437	0,07080248
1,866	-0,005820313	0,0665052
1,867	-0,05546875	0,06239209
1,868	-0,02996094	0,05847155
1,869	-0,01507813	0,0546661
1,87	-0,05179687	0,05117862
1,871	-0,05410156	0,04793568
1,872	-0,005820313	0,04492273
1,873	0,04523438	0,04211339
1,874	0,0775	0,03946678
1,875	0,09132812	0,03692619
1,876	0,1004297	0,03434006
1,877	0,1078125	0,03187989
1,878	0,09605469	0,02940125
1,879	0,05	0,02684337
1,88	0,02375	0,02414877
1,881	0,06140625	0,02126115
1,882	0,08558594	0,018124
1,883	0,06046875	0,01460142
1,884	0,02535156	0,01088815
1,885	-0,02730469	0,006867761
1,886	-0,08488281	0,002519129
1,887	-0,08808594	-0,002164005
1,888	-0,04703125	-0,007174634
1,889	-0,01578125	-0,01249432
1,89	0,001328125	-0,01816644
1,891	-0,003789062	-0,02393759
1,892	-0,03070313	-0,02984533
1,893	-0,04972656	-0,0358443
1,894	-0,05003906	-0,04187901
1,895	-0,02933594	-0,0478851
1,896	-0,02332031	-0,05379199
1,897	-0,05941406	-0,05959162
1,898	-0,1008203	-0,0650244
1,899	-0,1118359	-0,07011503
1,9	-0,07582031	-0,0748246
1,901	-0,034375	-0,07911575
1,902	-0,04398437	-0,0829536
1,903	-0,07726563	-0,08630921
1,904	-0,105	-0,08922644
1,905	-0,12125	-0,09152363
1,906	-0,1147656	-0,09330096
1,907	-0,1021094	-0,09459908
1,908	-0,09859375	-0,09546042
1,909	-0,09953125	-0,09593012
1,91	-0,08386719	-0,09605949
1,911	-0,07007813	-0,09596721
1,912	-0,09859375	-0,09556112
1,913	-0,1141406	-0,0949989
1,914	-0,08882813	-0,09437077
1,915	-0,07273438	-0,09375587
1,916	-0,06054688	-0,09322335
1,917	-0,04761719	-0,0928351
1,918	-0,05871094	-0,09269256
1,919	-0,07933594	-0,0927228
1,92	-0,08847656	-0,09303217
1,921	-0,1083984	-0,09366345
1,922	-0,1429297	-0,09464009
1,923	-0,1521875	-0,09596683
1,924	-0,1396094	-0,09763194
1,925	-0,1277344	-0,09963486
1,926	-0,1082422	-0,1018694
1,927	-0,09640625	-0,1043322
1,928	-0,1084766	-0,1069836
1,929	-0,12	-0,1097725
1,93	-0,1101953	-0,1126373
1,931	-0,09589844	-0,1155071
1,932	-0,1094531	-0,118315
1,933	-0,1367578	-0,1209584
1,934	-0,1421094	-0,1233929
1,935	-0,1227734	-0,1255678
1,936	-0,09570313	-0,1274366
1,937	-0,08589844	-0,1289561
1,938	-0,08054688	-0,1300877
1,939	-0,06402344	-0,1308049
1,94	-0,07996094	-0,1310805
1,941	-0,1327344	-0,1309301
1,942	-0,1603906	-0,1303729
1,943	-0,1528906	-0,1294344
1,944	-0,1463281	-0,1281458
1,945	-0,1494531	-0,1265445
1,946	-0,1662891	-0,1246786
1,947	-0,1832031	-0,1226
1,948	-0,1783594	-0,1203848
1,949	-0,1499219	-0,1181025
1,95	-0,1012109	-0,1158175
1,951	-0,06742188	-0,1135882
1,952	-0,07109375	-0,1114674
1,953	-0,1101563	-0,1095001
1,954	-0,1614453	-0,1077414
1,955	-0,16125	-0,1062336
1,956	-0,1105469	-0,105008
1,957	-0,05757813	-0,1040821
1,958	-0,03300781	-0,1034596
1,959	-0,05707031	-0,1031308
1,96	-0,096875	-0,1030627
1,961	-0,1133984	-0,1032563
1,962	-0,09503906	-0,1036661
1,963	-0,07789063	-0,10425
1,964	-0,09085938	-0,1049605
1,965	-0,08011719	-0,1057445
1,966	-0,06375	-0,1065437
1,967	-0,09957031	-0,1072825
1,968	-0,1379297	-0,1079403
1,969	-0,1332422	-0,1084462
1,97	-0,148125	-0,1087511
1,971	-0,2098047	-0,1088152
1,972	-0,2105859	-0,1086079
1,973	-0,1272266	-0,1081081
1,974	-0,0659375	-0,1072952
1,975	-0,04015625	-0,106197
1,976	-0,02628906	-0,1048087
1,977	-0,06015625	-0,1031476
1,978	-0,1040625	-0,1012421
1,979	-0,1041016	-0,09913266
1,98	-0,09929688	-0,09687056
1,981	-0,1161719	-0,09451207
1,982	-0,1404688	-0,0921372
1,983	-0,15375	-0,08980005
1,984	-0,1377344	-0,08755999
1,985	-0,09875	-0,08547567
1,986	-0,06355469	-0,08360494
1,987	-0,03902344	-0,08200365
1,988	-0,01421875	-0,08071754
1,989	-0,006484375	-0,07980473
1,99	-0,03945312	-0,07928209
1,991	-0,08285156	-0,07916254
1,992	-0,08460938	-0,07944901
1,993	-0,06652344	-0,08013418
1,994	-0,06941406	-0,08119928
1,995	-0,08949219	-0,08260298
1,996	-0,1325	-0,08432812
1,997	-0,1602734	-0,08630696
1,998	-0,1273047	-0,08847759
1,999	-0,08609375	-0,09077497
2	-0,07332031	-0,09313069
2,001	-0,07769531	-0,09547246
2,002	-0,1053516	-0,0977159
2,003	-0,1223047	-0,09980979
2,004	-0,10625	-0,1016757
2,005	-0,09195312	-0,1032536
2,006	-0,0909375	-0,1044937
2,007	-0,0965625	-0,1053567
2,008	-0,09707031	-0,1058136
2,009	-0,09296875	-0,1058465
2,01	-0,09859375	-0,105453
2,011	-0,1042578	-0,1046434
2,012	-0,1065234	-0,10344
2,013	-0,1085547	-0,101876
2,014	-0,1054297	-0,09999617
2,015	-0,09820313	-0,09785633
2,016	-0,08601562	-0,09552898
2,017	-0,07414063	-0,09307605
2,018	-0,07539063	-0,09058208
2,019	-0,08429688	-0,08812418
2,02	-0,09179688	-0,08577596
2,021	-0,106875	-0,08360744
2,022	-0,1101172	-0,08168491
2,023	-0,08460938	-0,08007023
2,024	-0,08433594	-0,07881742
2,025	-0,1114453	-0,07796922
2,026	-0,09449219	-0,077554
2,027	-0,06027344	-0,07758554
2,028	-0,06015625	-0,07806249
2,029	-0,061875	-0,07896784
2,03	-0,05484375	-0,0802577
2,031	-0,06078125	-0,08191829
2,032	-0,08121094	-0,08388472
2,033	-0,1035156	-0,08609529
2,034	-0,1094922	-0,08848104
2,035	-0,1057813	-0,09096496
2,036	-0,1019531	-0,09346138
2,037	-0,08128906	-0,09586195
2,038	-0,06015625	-0,09812031
2,039	-0,06492188	-0,1001399
2,04	-0,09136719	-0,1018486
2,041	-0,13	-0,1031832
2,042	-0,1430859	-0,1040894
2,043	-0,1157422	-0,1045215
2,044	-0,07925781	-0,1044362
2,045	-0,05789063	-0,103839
2,046	-0,07960937	-0,1027228
2,047	-0,1143359	-0,1011021
2,048	-0,09691406	-0,09900502
2,049	-0,07234375	-0,09647288
2,05	-0,1271484	-0,0935611
2,051	-0,2174219	-0,09034139
2,052	-0,2185938	-0,08689034
2,053	-0,1251563	-0,08329668
2,054	-0,04121094	-0,07964737
2,055	-0,00375	-0,07602916
2,056	0,01371094	-0,07252934
2,057	-0,0001953125	-0,06923614
2,058	-0,0459375	-0,06623972
2,059	-0,08679687	-0,06361388
2,06	-0,1051563	-0,06142316
2,061	-0,07484375	-0,05971653
2,062	-0,01273438	-0,05852991
2,063	0,01246094	-0,05788685
2,064	7,8125e-005	-0,0577981
2,065	-0,04226563	-0,05825261
2,066	-0,1092578	-0,05924969
2,067	-0,1365625	-0,06073801
2,068	-0,1108203	-0,06266494
2,069	-0,07449219	-0,06496995
2,07	-0,06121094	-0,06758438
2,071	-0,07519531	-0,07043034
2,072	-0,0884375	-0,07340586
2,073	-0,06996094	-0,07645738
2,074	-0,02054687	-0,07947245
2,075	-0,04699219	-0,08236144
2,076	-0,1587891	-0,08504343
2,077	-0,1823047	-0,08744535
2,078	-0,1006641	-0,08950096
2,079	-0,03960938	-0,09114266
2,08	-0,02648438	-0,0923467
2,081	-0,03128906	-0,09307095
2,082	-0,05292969	-0,09329771
2,083	-0,09015625	-0,09302479
2,084	-0,1271875	-0,0922648
2,085	-0,1526953	-0,09104506
2,086	-0,1617578	-0,08941283
2,087	-0,1408984	-0,0874078
2,088	-0,08246094	-0,08510055
2,089	-0,03	-0,08256072
2,09	-0,02601563	-0,07986189
2,091	-0,04546875	-0,07708207
2,092	-0,065625	-0,07430435
2,093	-0,09515625	-0,07162949
2,094	-0,1013281	-0,06910346
2,095	-0,06519531	-0,06681529
2,096	-0,03605469	-0,06482944
2,097	-0,033125	-0,06319976
2,098	-0,03546875	-0,06197086
2,099	-0,05207031	-0,06117881
2,1	-0,08644531	-0,06085968
2,101	-0,09300781	-0,0609966
2,102	-0,06296875	-0,06159104
2,103	-0,04714844	-0,06262383
2,104	-0,05785156	-0,06406579
2,105	-0,07082031	-0,06587887
2,106	-0,08347656	-0,06801615
2,107	-0,1076563	-0,07042235
2,108	-0,1222656	-0,07302815
2,109	-0,09042969	-0,07575994
2,11	-0,03578125	-0,0785464
2,111	-0,03578125	-0,08131979
2,112	-0,09292969	-0,08401571
2,113	-0,1255469	-0,08657263
2,114	-0,1234766	-0,08892928
2,115	-0,1110938	-0,09104024
2,116	-0,07957031	-0,09285958
2,117	-0,04996094	-0,09435628
2,118	-0,0321875	-0,09551043
2,119	-0,01632812	-0,09631195
2,12	-0,0378125	-0,09675993
2,121	-0,11125	-0,09686207
2,122	-0,1540625	-0,09664222
2,123	-0,1161328	-0,09613612
2,124	-0,07964844	-0,09538467
2,125	-0,1049219	-0,09443112
2,126	-0,1392578	-0,09331958
2,127	-0,1314844	-0,09209477
2,128	-0,1014453	-0,09080103
2,129	-0,1027344	-0,08949465
2,13	-0,1449219	-0,08823408
2,131	-0,1600781	-0,08706908
2,132	-0,1101563	-0,08603794
2,133	-0,04441406	-0,08516646
2,134	-0,01234375	-0,08446815
2,135	-0,01941406	-0,08393666
2,136	-0,0428125	-0,0836002
2,137	-0,066875	-0,08345516
2,138	-0,08265625	-0,0834942
2,139	-0,08125	-0,08369701
2,14	-0,08234375	-0,08402964
2,141	-0,09972656	-0,08444509
2,142	-0,1189844	-0,08486648
2,143	-0,1121094	-0,08529795
2,144	-0,05941406	-0,08567748
2,145	-0,01636719	-0,08596107
2,146	-0,04226563	-0,0861032
2,147	-0,07507812	-0,0860559
2,148	-0,08722656	-0,08576941
2,149	-0,1170313	-0,08516765
2,15	-0,1248438	-0,08429779
2,151	-0,1108984	-0,08311751
2,152	-0,1091797	-0,08161941
2,153	-0,1155859	-0,07980256
2,154	-0,1241016	-0,07767096
2,155	-0,1132031	-0,07523355
2,156	-0,0996875	-0,07247304
2,157	-0,09125	-0,06951807
2,158	-0,06058594	-0,06638094
2,159	-0,0215625	-0,06310928
2,16	0,0046875	-0,05975137
2,161	0,01292969	-0,05635401
2,162	-0,001210938	-0,05296154
2,163	-0,01808594	-0,04957682
2,164	-0,01648437	-0,04636075
2,165	-0,01667969	-0,04331892
2,166	-0,03074219	-0,04048784
2,167	-0,055	-0,03789484
2,168	-0,08832031	-0,03555611
2,169	-0,09949219	-0,03347514
2,17	-0,07917969	-0,03159869
2,171	-0,05007813	-0,03003872
2,172	-0,03011719	-0,02872621
2,173	-0,03375	-0,02762873
2,174	-0,03972656	-0,0267078
2,175	-0,02691406	-0,02591796
2,176	-0,01417969	-0,02520576
2,177	-0,0228125	-0,02447098
2,178	-0,03632813	-0,0237632
2,179	-0,002734375	-0,02297371
2,18	0,04214844	-0,02204019
2,181	0,02851562	-0,02091003
2,182	-0,0096875	-0,01954122
2,183	-0,04824219	-0,01790214
2,184	-0,05125	-0,01594937
2,185	0,0005078125	-0,01373018
2,186	0,02425781	-0,01120098
2,187	-0,003945313	-0,008357664
2,188	-0,03925781	-0,005215964
2,189	-0,04960938	-0,001813657
2,19	-0,03519531	0,001789594
2,191	-0,01246094	0,005514836
2,192	0,01734375	0,00928681
2,193	0,03820312	0,01305172
2,194	0,04984375	0,01674553
2,195	0,06027344	0,02029186
2,196	0,05214844	0,02359906
2,197	0,028125	0,02656144
2,198	0,001445313	0,02904788
2,199	-0,01265625	0,03102123
2,2	0,001992188	0,03242325
2,201	0,035625	0,03321604
2,202	0,05257813	0,03336248
2,203	0,04054688	0,03282312
2,204	0,03753906	0,03155819
2,205	0,04960938	0,02950776
2,206	0,050625	0,02675697
2,207	0,03816406	0,0233366
2,208	0,01621094	0,01930696
2,209	-0,00171875	0,01472866
2,21	-0,01117188	0,009659916
2,211	-0,03128906	0,004158193
2,212	-0,05246094	-0,001747272
2,213	-0,04761719	-0,00787456
2,214	-0,02808594	-0,01414522
2,215	-0,0128125	-0,02045947
2,216	-0,002539063	-0,02672896
2,217	0,001015625	-0,03287789
2,218	-0,001757813	-0,03884205
2,219	-0,0153125	-0,0446026
2,22	-0,03542969	-0,05000449
2,221	-0,03730469	-0,05504459
2,222	-0,024375	-0,05969958
2,223	-0,02171875	-0,06395842
2,224	-0,02429687	-0,06782044
2,225	-0,04753906	-0,07129471
2,226	-0,1202344	-0,07443442
2,227	-0,1714063	-0,07717456
2,228	-0,1239063	-0,07961385
2,229	-0,0559375	-0,08181463
2,23	-0,07738281	-0,08383246
2,231	-0,1363281	-0,08571276
2,232	-0,1400391	-0,08749024
2,233	-0,1059766	-0,08922287
2,234	-0,07964844	-0,09085036
2,235	-0,08628906	-0,09246355
2,236	-0,1084766	-0,09409995
2,237	-0,1069141	-0,09577454
2,238	-0,08179688	-0,0974785
2,239	-0,05992187	-0,09918144
2,24	-0,07628906	-0,100873
2,241	-0,1071875	-0,1023975
2,242	-0,1010938	-0,1037667
2,243	-0,09660156	-0,1049397
2,244	-0,1150391	-0,1058642
2,245	-0,1134375	-0,1064809
2,246	-0,1009375	-0,1067293
2,247	-0,09039063	-0,1066008
2,248	-0,08300781	-0,1059195
2,249	-0,07808594	-0,1047124
2,25	-0,07199219	-0,1029677
2,251	-0,09917969	-0,1006854
2,252	-0,1276172	-0,09788338
2,253	-0,1198047	-0,09460537
2,254	-0,1128906	-0,09095387
2,255	-0,09566406	-0,08694754
2,256	-0,06722656	-0,08273151
2,257	-0,07027344	-0,07843133
2,258	-0,08933594	-0,07417734
2,259	-0,08628906	-0,07010438
2,26	-0,0615625	-0,06635333
2,261	-0,03378906	-0,06302201
2,262	-0,02078125	-0,06042444
2,263	-0,02953125	-0,05868662
2,264	-0,04882813	-0,05795909
2,265	-0,06171875	-0,05835182
2,266	-0,06414063	-0,05991888
2,267	-0,07714844	-0,06264998
2,268	-0,1058984	-0,0662922
2,269	-0,1175391	-0,07131098
2,27	-0,1133203	-0,07750821
2,271	-0,1153125	-0,08480997
2,272	-0,1086719	-0,0930668
2,273	-0,1046094	-0,1020252
2,274	-0,1313281	-0,1113141
2,275	-0,146875	-0,1201662
2,276	-0,1232813	-0,1290096
2,277	-0,12	-0,1372641
2,278	-0,1645312	-0,1446054
2,279	-0,2055078	-0,1506604
2,28	-0,1789063	-0,1549786
2,281	-0,09492188	-0,1570258
2,282	-0,048125	-0,1559072
2,283	-0,04558594	-0,1520532
2,284	-0,04585938	-0,1449172
2,285	-0,08574219	-0,1342775
2,286	-0,1284766	-0,1199345
2,287	-0,1051953	-0,101699
2,288	-0,05179687	-0,07940062
2,289	-0,01628906	-0,05271213
2,29	-0,01378906	-0,02227463
2,291	-0,02621094	0,0119145
2,292	-0,01796875	0,04960349
2,293	0,02417969	0,09047601
2,294	0,09714844	0,1341376
2,295	0,1688672	0,1800986
2,296	0,210625	0,2278343
2,297	0,24375	0,2764824
2,298	0,2891797	0,3255262
2,299	0,3400781	0,3743599
2,3	0,3916797	0,4223352
2,301	0,4407813	0,4687307
2,302	0,4774219	0,5127413
2,303	0,5063281	0,5534973
2,304	0,5397266	0,5902863
2,305	0,5728516	0,6227209
2,306	0,6164844	0,6504372
2,307	0,6771875	0,6730668
2,308	0,7267187	0,6902071
2,309	0,7629297	0,7014314
2,31	0,8001953	0,7063382
2,311	0,8219141	0,7048129
2,312	0,8236719	0,6971922
2,313	0,8161719	0,6838064
2,314	0,7792578	0,6649644
2,315	0,7209766	0,6409412
2,316	0,6883594	0,6120061
2,317	0,6351172	0,5784914
2,318	0,4766406	0,5409362
2,319	0,3123438	0,5002389
2,32	0,2958594	0,4571994
2,321	0,3440234	0,412532
2,322	0,3009766	0,366871
2,323	0,2130859	0,3208044
2,324	0,1792969	0,2748635
2,325	0,1949609	0,2298515
2,326	0,2397266	0,1864234
2,327	0,2575391	0,145156
2,328	0,1735937	0,1065128
2,329	0,02667969	0,07085785
2,33	-0,05417969	0,03847399
2,331	-0,03449219	0,009397578
2,332	-0,007578125	-0,01571617
2,333	-0,01875	-0,03706282
2,334	-0,05335938	-0,05472327
2,335	-0,08828125	-0,06882502
2,336	-0,1000781	-0,07953508
2,337	-0,08546875	-0,08706577
2,338	-0,05273438	-0,09197282
2,339	-0,03503906	-0,09379811
2,34	-0,02894531	-0,0933928
2,341	-0,01457031	-0,09126365
2,342	-0,02328125	-0,08785226
2,343	-0,03851562	-0,08354025
2,344	-0,03496094	-0,07867276
2,345	-0,04535156	-0,07387685
2,346	-0,06175781	-0,06868053
2,347	-0,06539063	-0,0638764
2,348	-0,06359375	-0,05984145
2,349	-0,06132813	-0,05683321
2,35	-0,084375	-0,05500087
2,351	-0,1260156	-0,05441156
2,352	-0,1341406	-0,05527648
2,353	-0,1075	-0,05702811
2,354	-0,08972656	-0,05994015
2,355	-0,08902344	-0,06400434
2,356	-0,08929687	-0,06913518
2,357	-0,093125	-0,07517694
2,358	-0,1012109	-0,08191993
2,359	-0,1092578	-0,08920184
2,36	-0,1188672	-0,09655368
2,361	-0,1158594	-0,1038841
2,362	-0,1002734	-0,1110193
2,363	-0,09578125	-0,1177849
2,364	-0,0996875	-0,1240049
2,365	-0,1012109	-0,1295059
2,366	-0,1024219	-0,1341384
2,367	-0,1121094	-0,1377464
2,368	-0,1320312	-0,1402848
2,369	-0,1353125	-0,1417296
2,37	-0,1164844	-0,1420856
2,371	-0,1005859	-0,1413816
2,372	-0,09832031	-0,1396689
2,373	-0,1072266	-0,137023
2,374	-0,1187109	-0,1335559
2,375	-0,1312891	-0,1294146
2,376	-0,1400391	-0,1247508
2,377	-0,1339844	-0,1197168
2,378	-0,1269531	-0,1144636
2,379	-0,1337891	-0,1091405
2,38	-0,1372656	-0,1038999
2,381	-0,1178125	-0,09887746
2,382	-0,09207031	-0,09422415
2,383	-0,07941406	-0,09005601
2,384	-0,07375	-0,08645957
2,385	-0,09074219	-0,08349335
2,386	-0,12625	-0,0811903
2,387	-0,1317188	-0,07955525
2,388	-0,1098438	-0,07859479
2,389	-0,085625	-0,078282
2,39	-0,06511719	-0,07857122
2,391	-0,07054687	-0,07939606
2,392	-0,09484375	-0,08067102
2,393	-0,09667969	-0,08229355
2,394	-0,0559375	-0,08412265
2,395	0,002265625	-0,0861103
2,396	-0,007226563	-0,08811533
2,397	-0,1064453	-0,09002971
2,398	-0,1772656	-0,09175473
2,399	-0,1670312	-0,09320001
2,4	-0,1051563	-0,09428269
2,401	0,0040625	-0,09489455
2,402	0,03691406	-0,0950786
2,403	-0,08578125	-0,09476027
2,404	-0,1690625	-0,09392123
2,405	-0,1267578	-0,09256319
2,406	-0,1012891	-0,09070512
2,407	-0,1132422	-0,08838094
2,408	-0,09457031	-0,08560877
2,409	-0,04867188	-0,08253784
2,41	-0,02585938	-0,07920826
2,411	-0,05917969	-0,07569471
2,412	-0,1075	-0,07207496
2,413	-0,1096094	-0,06842798
2,414	-0,07816406	-0,06483239
2,415	-0,07425781	-0,06134042
2,416	-0,09015625	-0,05809775
2,417	-0,07890625	-0,05514358
2,418	-0,04941406	-0,05252749
2,419	-0,04066406	-0,05028501
2,42	-0,06	-0,04843714
2,421	-0,06207031	-0,04699011
2,422	-0,04742188	-0,04590569
2,423	-0,05050781	-0,04525178
2,424	-0,05042969	-0,04496884
2,425	-0,03066406	-0,04501635
2,426	0,025625	-0,04534395
2,427	0,08324219	-0,04589087
2,428	0,04351563	-0,04658545
2,429	-0,06257812	-0,04730715
2,43	-0,1283594	-0,04809116
2,431	-0,1246484	-0,04882226
2,432	-0,08226562	-0,04943104
2,433	-0,0525	-0,04985417
2,434	-0,04011719	-0,05003242
2,435	-0,03511719	-0,04990942
2,436	-0,0534375	-0,04939022
2,437	-0,06519531	-0,04856148
2,438	-0,04390625	-0,0473577
2,439	-0,03417969	-0,0457687
2,44	-0,06847656	-0,04379573
2,441	-0,1118359	-0,04144906
2,442	-0,11	-0,03874652
2,443	-0,0459375	-0,03567533
2,444	0,02496094	-0,0323872
2,445	0,03160156	-0,02889148
2,446	-0,01085938	-0,02523849
2,447	-0,04539063	-0,02148012
2,448	-0,04140625	-0,01766828
2,449	-0,003164063	-0,01385406
2,45	0,02957031	-0,01005081
2,451	0,04417969	-0,006418326
2,452	0,05265625	-0,002966718
2,453	0,04730469	0,0002656824
2,454	0,02125	0,003249182
2,455	-0,02496094	0,005963563
2,456	-0,05515625	0,008398767
2,457	-0,03453125	0,01059845
2,458	-0,001210938	0,01244011
2,459	0,01164063	0,01398224
2,46	0,01957031	0,01524647
2,461	0,02539063	0,01626105
2,462	0,02421875	0,01706233
2,463	0,02503906	0,01769616
2,464	0,02085937	0,01827025
2,465	0,015	0,01868651
2,466	0,01210938	0,0190555
2,467	-0,01570313	0,01943121
2,468	-0,03871094	0,01986405
2,469	-0,015	0,02040317
2,47	0,02808594	0,02109861
2,471	0,06726562	0,02205441
2,472	0,07730469	0,02315781
2,473	0,05308594	0,0244992
2,474	0,03007813	0,02610546
2,475	-0,001445313	0,02799369
2,476	-0,01917969	0,03017324
2,477	0,0271875	0,03264746
2,478	0,06765625	0,03545815
2,479	0,05558594	0,03846358
2,48	0,04597656	0,04169251
2,481	0,06390625	0,04512285
2,482	0,08003906	0,04872591
2,483	0,06277344	0,05246697
2,484	0,039375	0,05630617
2,485	0,03921875	0,06023442
2,486	0,05433594	0,06410117
2,487	0,07496094	0,06790278
2,488	0,08984375	0,07160126
2,489	0,09539063	0,07515909
2,49	0,09519531	0,07853907
2,491	0,09453125	0,08170513
2,492	0,08570313	0,0846588
2,493	0,07007813	0,08726999
2,494	0,05980469	0,08956438
2,495	0,05074219	0,09153616
2,496	0,04820312	0,093183
2,497	0,05101563	0,09450668
2,498	0,048125	0,09551497
2,499	0,07117187	0,09626417
2,5	0,1396094	0,09666083
2,501	0,1751953	0,09678751
2,502	0,1482813	0,09668537
2,503	0,1295313	0,09639498
2,504	0,1130469	0,09595805
2,505	0,09675781	0,09542032
2,506	0,1008594	0,09487279
2,507	0,05953125	0,09425642
2,508	0,01761719	0,09367399
2,509	0,07691406	0,09318084
2,51	0,1369922	0,09282409
2,511	0,1117188	0,09264404
2,512	0,08578125	0,09267636
2,513	0,0971875	0,09297679
2,514	0,1142578	0,09350681
2,515	0,1176563	0,09432073
2,516	0,1069141	0,0954378
2,517	0,09917969	0,09686437
2,518	0,08398438	0,09859292
2,519	0,06515625	0,1006025
2,52	0,07285156	0,1028573
2,521	0,1021094	0,1053303
2,522	0,1330469	0,1079927
2,523	0,1446484	0,11081
2,524	0,1206641	0,1137367
2,525	0,09015625	0,1167129
2,526	0,08914063	0,1196634
2,527	0,1059766	0,1224749
2,528	0,1134766	0,1251466
2,529	0,1147266	0,1276043
2,53	0,1336328	0,129798
2,531	0,1588281	0,131673
2,532	0,1632813	0,1331653
2,533	0,1550781	0,1342014
2,534	0,1458594	0,1346646
2,535	0,133125	0,1346184
2,536	0,1263672	0,1340183
2,537	0,1255469	0,1328599
2,538	0,115625	0,131137
2,539	0,1072656	0,1288382
2,54	0,1136328	0,1259478
2,541	0,1308984	0,1224057
2,542	0,1388281	0,1183674
2,543	0,1277734	0,1138494
2,544	0,1145313	0,1089107
2,545	0,09667969	0,1036039
2,546	0,08335937	0,09797352
2,547	0,08722656	0,0920568
2,548	0,1003906	0,08583229
2,549	0,1053906	0,07952715
2,55	0,08558594	0,07316568
2,551	0,0675	0,06681778
2,552	0,04761719	0,06054093
2,553	0,01886719	0,05437811
2,554	0,002265625	0,04835824
2,555	0,001992188	0,04242534
2,556	0,03261719	0,03682058
2,557	0,05125	0,03149344
2,558	0,04167969	0,02645637
2,559	0,04382813	0,02171127
2,56	0,04273437	0,01724739
2,561	0,04	0,01303993
2,562	0,04761719	0,008963937
2,563	0,04792969	0,005233809
2,564	0,03359375	0,001710156
2,565	0,009257813	-0,001658097
2,566	-0,02011719	-0,004919495
2,567	-0,04632812	-0,008121825
2,568	-0,05597656	-0,01131478
2,569	-0,05605469	-0,01463657
2,57	-0,06140625	-0,01788916
2,571	-0,05519531	-0,02122395
2,572	-0,03171875	-0,02469166
2,573	-0,02867187	-0,02832654
2,574	-0,05601562	-0,03214731
2,575	-0,05558594	-0,03616014
2,576	-0,003671875	-0,04043125
2,577	0,02261719	-0,04475152
2,578	-0,01714844	-0,04920382
2,579	-0,06824219	-0,05378408
2,58	-0,09058594	-0,05846982
2,581	-0,08273437	-0,06322009
2,582	-0,05554688	-0,06797855
2,583	-0,02351563	-0,07272844
2,584	-0,006757812	-0,07726334
2,585	-0,02933594	-0,08160624
2,586	-0,06628906	-0,08572212
2,587	-0,08824219	-0,08956734
2,588	-0,1267969	-0,09308907
2,589	-0,1628125	-0,09622866
2,59	-0,1564844	-0,09896537
2,591	-0,1356641	-0,101151
2,592	-0,1070313	-0,1028277
2,593	-0,09070312	-0,1040005
2,594	-0,08714844	-0,1046736
2,595	-0,06597656	-0,1048507
2,596	-0,08074219	-0,1045387
2,597	-0,1257813	-0,1037854
2,598	-0,1486719	-0,1025335
2,599	-0,1588672	-0,1008867
2,6	-0,1283984	-0,09891318
2,601	-0,0834375	-0,09667759
2,602	-0,08945313	-0,0942421
2,603	-0,07949219	-0,09166962
2,604	-0,03304688	-0,08905381
2,605	-0,03507813	-0,08639225
2,606	-0,05210937	-0,08379604
2,607	-0,04734375	-0,08133794
2,608	-0,0759375	-0,07907955
2,609	-0,10125	-0,0770729
2,61	-0,08394531	-0,07536264
2,611	-0,07480469	-0,07400236
2,612	-0,0828125	-0,07297795
2,613	-0,08933594	-0,07232446
2,614	-0,09722656	-0,07205011
2,615	-0,1020703	-0,07215262
2,616	-0,1039844	-0,07262052
2,617	-0,1134766	-0,07343383
2,618	-0,1174609	-0,07456678
2,619	-0,09285156	-0,07597174
2,62	-0,05742188	-0,07760081
2,621	-0,04203125	-0,07940308
2,622	-0,04609375	-0,08132809
2,623	-0,04632812	-0,08332615
2,624	-0,02898438	-0,08534776
2,625	-0,02277344	-0,08734026
2,626	-0,01125	-0,08926132
2,627	0,03226562	-0,0910575
2,628	-0,01679687	-0,09268822
2,629	-0,1917578	-0,09412225
2,63	-0,3048047	-0,09533712
2,631	-0,2666406	-0,09631807
2,632	-0,1670312	-0,09705691
2,633	-0,1001563	-0,09755501
2,634	-0,08332031	-0,09781867
2,635	-0,08636719	-0,09786211
2,636	-0,08003906	-0,09770538
2,637	-0,07730469	-0,0973735
2,638	-0,08550781	-0,09689584
2,639	-0,06304688	-0,09630857
2,64	-0,03136719	-0,09564175
2,641	-0,0490625	-0,0949411
2,642	-0,0878125	-0,09424559
2,643	-0,1026172	-0,09358912
2,644	-0,09742188	-0,09300004
2,645	-0,09117187	-0,09250118
2,646	-0,09660156	-0,09211108
2,647	-0,09449219	-0,09184442
2,648	-0,08898438	-0,09172005
2,649	-0,1086719	-0,09174654
2,65	-0,1125	-0,0919227
2,651	-0,08617187	-0,09223724
2,652	-0,07785156	-0,09266932
2,653	-0,08851563	-0,09318398
2,654	-0,1064063	-0,09377034
2,655	-0,1255859	-0,09439898
2,656	-0,1204688	-0,09504268
2,657	-0,09074219	-0,09567031
2,658	-0,05945313	-0,09624638
2,659	-0,0384375	-0,09673149
2,66	-0,03578125	-0,09707281
2,661	-0,06148438	-0,09727012
2,662	-0,1121875	-0,09728972
2,663	-0,1555078	-0,09711339
2,664	-0,1623828	-0,09672653
2,665	-0,1480469	-0,0961175
2,666	-0,1348828	-0,09527774
2,667	-0,1191797	-0,09419129
2,668	-0,1023828	-0,09289903
2,669	-0,09546875	-0,09140506
2,67	-0,08015625	-0,08972931
2,671	-0,0496875	-0,08789524
2,672	-0,04589844	-0,08592953
2,673	-0,07980469	-0,08386198
2,674	-0,1018359	-0,08171638
2,675	-0,08898438	-0,07955713
2,676	-0,08144531	-0,07741034
2,677	-0,07828125	-0,07530957
2,678	-0,03726563	-0,07328654
2,679	0,005820313	-0,07137154
2,68	-0,003984375	-0,06959334
2,681	-0,04289063	-0,06797016
2,682	-0,07238281	-0,06654767
2,683	-0,08652344	-0,06532713
2,684	-0,08433594	-0,06431395
2,685	-0,07585938	-0,06351013
2,686	-0,06492188	-0,06291501
2,687	-0,06171875	-0,06252496
2,688	-0,07980469	-0,06232296
2,689	-0,08382813	-0,06232138
2,69	-0,07769531	-0,06248306
2,691	-0,1035547	-0,06278121
2,692	-0,1310156	-0,06319053
2,693	-0,1196094	-0,06368757
2,694	-0,08234375	-0,06425
2,695	-0,04222656	-0,06484573
2,696	-0,02015625	-0,06547785
2,697	-0,0228125	-0,06610493
2,698	-0,02648438	-0,06670169
2,699	-0,03925781	-0,06724911
2,7	-0,08363281	-0,06773396
2,701	-0,1275781	-0,06814777
2,702	-0,1252734	-0,0684781
2,703	-0,06875	-0,06874302
2,704	-0,01097656	-0,06892999
2,705	-0,00453125	-0,06903919
2,706	-0,03878906	-0,06907526
2,707	-0,06257812	-0,06904655
2,708	-0,03675781	-0,0689641
2,709	-0,00625	-0,06883624
2,71	-0,02695313	-0,06868973
2,711	-0,07578125	-0,06853356
2,712	-0,1242578	-0,06838051
2,713	-0,1583984	-0,06824202
2,714	-0,1423047	-0,06812759
2,715	-0,09238281	-0,06804437
2,716	-0,07222656	-0,06799325
2,717	-0,06171875	-0,0679892
2,718	-0,0425	-0,06803329
2,719	-0,06011719	-0,06812641
2,72	-0,06917969	-0,06826531
2,721	-0,03460937	-0,06844221
2,722	-0,04320313	-0,06864493
2,723	-0,09980469	-0,0688521
2,724	-0,09960938	-0,06906562
2,725	-0,05402344	-0,06926975
2,726	-0,06617188	-0,06945261
2,727	-0,09476563	-0,06960054
2,728	-0,07238281	-0,06969768
2,729	-0,06667969	-0,06972626
2,73	-0,08152344	-0,06966002
2,731	-0,05441406	-0,0695082
2,732	-0,02386719	-0,06925688
2,733	-0,04636719	-0,06890131
2,734	-0,09136719	-0,06843802
2,735	-0,1013281	-0,06786435
2,736	-0,07273438	-0,06717853
2,737	-0,04667969	-0,06637235
2,738	-0,05316406	-0,06547518
2,739	-0,06765625	-0,06448941
2,74	-0,04882813	-0,06342672
2,741	-0,02949219	-0,06229984
2,742	-0,03632813	-0,06112225
2,743	-0,03734375	-0,05990825
2,744	-0,05144531	-0,05866611
2,745	-0,08546875	-0,05743271
2,746	-0,09195312	-0,05621626
2,747	-0,06738281	-0,05503077
2,748	-0,04363281	-0,05388947
2,749	-0,04777344	-0,05280512
2,75	-0,07667969	-0,05178992
2,751	-0,1051563	-0,05084997
2,752	-0,1141797	-0,05000861
2,753	-0,08773438	-0,04926146
2,754	-0,04296875	-0,04860838
2,755	-0,01359375	-0,04804898
2,756	-0,001445313	-0,04758327
2,757	-0,01175781	-0,04721151
2,758	-0,03863281	-0,04693021
2,759	-0,04730469	-0,04674369
2,76	-0,04332031	-0,04663471
2,761	-0,04191406	-0,04659124
2,762	-0,03222656	-0,04660394
2,763	-0,025625	-0,04666678
2,764	-0,03550781	-0,04677668
2,765	-0,05226563	-0,04693201
2,766	-0,06128906	-0,04712791
2,767	-0,04503906	-0,04735066
2,768	-0,0053125	-0,04759084
2,769	-0,008085937	-0,04784345
2,77	-0,08035156	-0,04810835
2,771	-0,1086328	-0,04838969
2,772	-0,06683594	-0,04869761
2,773	-0,05910156	-0,04902635
2,774	-0,07375	-0,04937601
2,775	-0,05949219	-0,0497464
2,776	-0,02570313	-0,05014008
2,777	-0,006679687	-0,05056258
2,778	-0,04675781	-0,0510219
2,779	-0,09816406	-0,05153154
2,78	-0,09402344	-0,05208564
2,781	-0,05953125	-0,05269102
2,782	-0,03664063	-0,05335012
2,783	-0,03703125	-0,05406465
2,784	-0,04035156	-0,05483527
2,785	-0,03027344	-0,05566115
2,786	-0,02535156	-0,05654039
2,787	-0,02671875	-0,05746781
2,788	-0,02953125	-0,05844277
2,789	-0,08167969	-0,05946167
2,79	-0,1455859	-0,06051748
2,791	-0,1285156	-0,06159854
2,792	-0,08699219	-0,06268816
2,793	-0,06707031	-0,06375956
2,794	-0,03375	-0,0648119
2,795	-0,01582031	-0,06583147
2,796	-0,02972656	-0,06680759
2,797	-0,0396875	-0,0677256
2,798	-0,04503906	-0,06856507
2,799	-0,05996094	-0,06929954
2,8	-0,08378906	-0,06988805
2,801	-0,09527344	-0,07033732
2,802	-0,07105469	-0,07062975
2,803	-0,04898438	-0,07075602
2,804	-0,06257812	-0,07070429
2,805	-0,083125	-0,0704589
2,806	-0,09210938	-0,07000091
2,807	-0,1027734	-0,0693003
2,808	-0,1082422	-0,06837802
2,809	-0,08773438	-0,0672308
2,81	-0,051875	-0,06586503
2,811	-0,03535156	-0,0642867
2,812	-0,05042969	-0,06250139
2,813	-0,06105469	-0,06051569
2,814	-0,05335938	-0,05832936
2,815	-0,05195313	-0,05599297
2,816	-0,04820312	-0,05352637
2,817	-0,0459375	-0,05095908
2,818	-0,08707031	-0,04832024
2,819	-0,1358594	-0,04563905
2,82	-0,1032031	-0,04294592
2,821	-0,003320312	-0,04025636
2,822	0,05875	-0,03765936
2,823	0,03804688	-0,03517502
2,824	-0,003554688	-0,03283762
2,825	-0,02144531	-0,03067762
2,826	-0,01246094	-0,02872072
2,827	0,0125	-0,02698728
2,828	0,01054688	-0,02546
2,829	-0,02160156	-0,02424476
2,83	-0,0640625	-0,02331474
2,831	-0,1003906	-0,02266958
2,832	-0,098125	-0,02230198
2,833	-0,06050781	-0,02219506
2,834	-0,01148438	-0,0223199
2,835	0,03503906	-0,0225906
2,836	0,04507813	-0,02309102
2,837	0,007890625	-0,02372848
2,838	-0,03734375	-0,02445242
2,839	-0,06605469	-0,0252093
2,84	-0,07609375	-0,02593966
2,841	-0,07371094	-0,02657591
2,842	-0,06734375	-0,02699993
2,843	-0,05386719	-0,027267
2,844	-0,04203125	-0,02727313
2,845	-0,04328125	-0,02696406
2,846	-0,03851562	-0,02629279
2,847	-0,016875	-0,02521849
2,848	0,005273438	-0,02370619
2,849	0,02375	-0,02170122
2,85	0,04238281	-0,01926983
2,851	0,04585938	-0,0163843
2,852	0,026875	-0,0130557
2,853	0,01507813	-0,00930814
2,854	0,01335938	-0,005180086
2,855	0,001992188	-0,0007252908
2,856	-0,003554688	0,003994206
2,857	-0,0003515625	0,008880793
2,858	-0,001875	0,01387163
2,859	0,002695313	0,01889164
2,86	0,02796875	0,02385869
2,861	0,06238281	0,02868087
2,862	0,05960937	0,03325619
2,863	0,01746094	0,03746833
2,864	0,0121875	0,04124832
2,865	0,02871094	0,04453579
2,866	-0,001796875	0,04728247
2,867	-0,01679687	0,04944167
2,868	0,0209375	0,05096473
2,869	0,03140625	0,05180211
2,87	0,002890625	0,0518917
2,871	-0,001132812	0,05127874
2,872	0,02695313	0,04999353
2,873	0,0471875	0,04808535
2,874	0,04429687	0,04560095
2,875	0,04121094	0,04258066
2,876	0,06117188	0,03905977
2,877	0,08355469	0,03504668
2,878	0,0865625	0,03069117
2,879	0,09007812	0,02607362
2,88	0,08722656	0,02128826
2,881	0,06183594	0,01641307
2,882	0,05140625	0,01150693
2,883	0,06984375	0,006610767
2,884	0,05113281	0,001715952
2,885	-0,02945313	-0,003035933
2,886	-0,06078125	-0,007634311
2,887	-0,001679688	-0,01205206
2,888	0,016875	-0,01627954
2,889	-0,03507813	-0,02032421
2,89	-0,06492188	-0,02420883
2,891	-0,0584375	-0,02800436
2,892	-0,04742188	-0,03164388
2,893	-0,06878906	-0,03521086
2,894	-0,1167578	-0,03875437
2,895	-0,1211719	-0,04232025
2,896	-0,09132812	-0,04594729
2,897	-0,06808594	-0,04966488
2,898	-0,04765625	-0,05352342
2,899	-0,050625	-0,05744725
2,9	-0,06402344	-0,06150065
2,901	-0,06933594	-0,06569663
2,902	-0,07527344	-0,07002573
2,903	-0,06886719	-0,07445313
2,904	-0,07722656	-0,07891861
2,905	-0,10875	-0,08337645
2,906	-0,111875	-0,08763559
2,907	-0,065	-0,09167557
2,908	0,00796875	-0,09542397
2,909	0,03921875	-0,09879597
2,91	-0,002070313	-0,1016966
2,911	-0,04929688	-0,1040265
2,912	-0,08804687	-0,1057416
2,913	-0,1616797	-0,1066149
2,914	-0,1976953	-0,1066628
2,915	-0,1492969	-0,1058584
2,916	-0,1106641	-0,1041873
2,917	-0,1098047	-0,1016541
2,918	-0,1121094	-0,09829186
2,919	-0,1161328	-0,09421455
2,92	-0,09914062	-0,08939833
2,921	-0,06125	-0,08403066
2,922	-0,04078125	-0,07826379
2,923	-0,03558594	-0,07225734
2,924	-0,04871094	-0,0661799
2,925	-0,08753906	-0,06021349
2,926	-0,09734375	-0,05453143
2,927	-0,06433594	-0,04943212
2,928	-0,0371875	-0,04512718
2,929	-0,02746094	-0,04182576
2,93	-0,04035156	-0,0396959
2,931	-0,07992188	-0,03885187
2,932	-0,1049219	-0,0393479
2,933	-0,1009375	-0,0410218
2,934	-0,0940625	-0,04433538
2,935	-0,07578125	-0,04915775
2,936	-0,05542969	-0,05545371
2,937	-0,05976563	-0,06310694
2,938	-0,05875	-0,07189326
2,939	-0,04804688	-0,0814673
2,94	-0,06109375	-0,09109007
2,941	-0,08175781	-0,1011683
2,942	-0,09015625	-0,1111126
2,943	-0,09398438	-0,1205757
2,944	-0,09425781	-0,1291557
2,945	-0,09121094	-0,1363669
2,946	-0,09074219	-0,1416321
2,947	-0,1013281	-0,1439956
2,948	-0,114375	-0,1438484
2,949	-0,1151172	-0,1405694
2,95	-0,08789063	-0,1338719
2,951	-0,05035156	-0,1234904
2,952	-0,07324219	-0,1091666
2,953	-0,1278906	-0,09065473
2,954	-0,1397266	-0,06753073
2,955	-0,1241797	-0,04041239
2,956	-0,0946875	-0,009230345
2,957	-0,04226563	0,02580814
2,958	0,04972656	0,06442832
2,959	0,1302344	0,106278
2,96	0,1310547	0,1509114
2,961	0,1398828	0,1978602
2,962	0,1953516	0,2462443
2,963	0,2360156	0,2955472
2,964	0,2903906	0,345148
2,965	0,3884375	0,394383
2,966	0,4921484	0,4425169
2,967	0,5482813	0,4887314
2,968	0,5639063	0,532142
2,969	0,5868359	0,5719917
2,97	0,6057422	0,607834
2,971	0,6074609	0,6392487
2,972	0,6329687	0,6658155
2,973	0,6997266	0,6870829
2,974	0,763125	0,7025746
2,975	0,7732422	0,7118316
2,976	0,7466797	0,7146951
2,977	0,7398828	0,7114367
2,978	0,7598047	0,7023338
2,979	0,7737891	0,6876464
2,98	0,7599219	0,6676021
2,981	0,7163672	0,6424206
2,982	0,6464453	0,612379
2,983	0,5669922	0,577981
2,984	0,5113281	0,5400992
2,985	0,4671875	0,4995128
2,986	0,3935547	0,4569157
2,987	0,2967578	0,4129194
2,988	0,2356641	0,3680863
2,989	0,2387891	0,3229305
2,99	0,2313672	0,2782236
2,991	0,1797266	0,2346508
2,992	0,1574609	0,192808
2,993	0,1546094	0,1531747
2,994	0,1198047	0,1161283
2,995	0,0840625	0,08196516
2,996	0,06085938	0,05075814
2,997	0,034375	0,0231459
2,998	0,01039063	-0,0009908383
2,999	0,00203125	-0,02167979
3	0,00515625	-0,03899897
3,001	-0,008164062	-0,05306721
3,002	-0,04476563	-0,06404579
3,003	-0,08824219	-0,07241656
3,004	-0,1024609	-0,07770612
3,005	-0,06453125	-0,08068247
3,006	-0,02183594	-0,08179206
3,007	-0,00171875	-0,08142096
3,008	0,002304687	-0,0798979
3,009	-0,01324219	-0,07751584
3,01	-0,02402344	-0,07484704
3,011	-0,01464844	-0,07138577
3,012	-0,01058594	-0,06789559
3,013	-0,06597656	-0,06473399
3,014	-0,1566406	-0,06214494
3,015	-0,1754688	-0,06027001
3,016	-0,1290234	-0,05917572
3,017	-0,1021484	-0,0590953
3,018	-0,1075781	-0,05944772
3,019	-0,1193359	-0,0605651
3,02	-0,1266797	-0,06248641
3,021	-0,1213672	-0,06517592
3,022	-0,1006641	-0,06853175
3,023	-0,08542969	-0,07240488
3,024	-0,0784375	-0,07672236
3,025	-0,04804688	-0,08103419
3,026	-0,007148438	-0,08534955
3,027	-0,01304687	-0,08956873
3,028	-0,0684375	-0,09358578
3,029	-0,1238281	-0,09728898
3,03	-0,1495313	-0,1005671
3,031	-0,1328516	-0,1033427
3,032	-0,08523438	-0,105475
3,033	-0,04550781	-0,106966
3,034	-0,03273438	-0,1078162
3,035	-0,0575	-0,1080444
3,036	-0,10375	-0,1076841
3,037	-0,1260938	-0,1067818
3,038	-0,1132031	-0,1053948
3,039	-0,07097656	-0,10361
3,04	-0,04515625	-0,1015242
3,041	-0,09550781	-0,09923681
3,042	-0,1563281	-0,09684444
3,043	-0,1498828	-0,09443769
3,044	-0,1144141	-0,09209957
3,045	-0,07558594	-0,08989864
3,046	-0,04242187	-0,08792572
3,047	-0,05667969	-0,08624456
3,048	-0,1029297	-0,08490286
3,049	-0,1194531	-0,08392579
3,05	-0,1209766	-0,08331593
3,051	-0,1447656	-0,08305439
3,052	-0,1464453	-0,08309017
3,053	-0,1041406	-0,08341879
3,054	-0,06613281	-0,08398642
3,055	-0,05773438	-0,08473914
3,056	-0,05753906	-0,0856111
3,057	-0,05800781	-0,08652472
3,058	-0,07421875	-0,0873925
3,059	-0,09871094	-0,0880971
3,06	-0,1191016	-0,08862703
3,061	-0,1175	-0,08889484
3,062	-0,07332031	-0,08884584
3,063	-0,02378906	-0,0884339
3,064	-0,0246875	-0,08762014
3,065	-0,06589844	-0,08637337
3,066	-0,09386719	-0,08464318
3,067	-0,09144531	-0,08251349
3,068	-0,09078125	-0,0799726
3,069	-0,09855469	-0,07704977
3,07	-0,09898437	-0,0737848
3,071	-0,09710937	-0,07022639
3,072	-0,07433594	-0,06643111
3,073	-0,0396875	-0,06243529
3,074	-0,05046875	-0,05839352
3,075	-0,0803125	-0,0543496
3,076	-0,07640625	-0,05037247
3,077	-0,04550781	-0,04652757
3,078	0,0040625	-0,04287616
3,079	0,02992188	-0,03947437
3,08	0,003046875	-0,03634212
3,081	-0,02773438	-0,0336087
3,082	-0,04007812	-0,03126894
3,083	-0,0446875	-0,02933636
3,084	-0,0515625	-0,02781384
3,085	-0,06242188	-0,02669322
3,086	-0,05324219	-0,02595448
3,087	-0,03820312	-0,02552722
3,088	-0,040625	-0,02547923
3,089	-0,04144531	-0,02571708
3,09	-0,03421875	-0,02618287
3,091	-0,02691406	-0,02681681
3,092	-0,02679688	-0,02755594
3,093	-0,02382813	-0,02833246
3,094	-0,009882813	-0,02903059
3,095	-0,01820313	-0,02970537
3,096	-0,03695313	-0,03024513
3,097	-0,03761719	-0,03059164
3,098	-0,0496875	-0,03069647
3,099	-0,06421875	-0,03051873
3,1	-0,04503906	-0,03002312
3,101	0,002109375	-0,02914101
3,102	0,04710938	-0,02796804
3,103	0,05136719	-0,02645709
3,104	0,02394531	-0,0246107
3,105	-0,002773437	-0,02244124
3,106	-0,03496094	-0,01996925
3,107	-0,06316406	-0,01722221
3,108	-0,07027344	-0,01420356
3,109	-0,05636719	-0,01104755
3,11	-0,04796875	-0,00777073
3,111	-0,05394531	-0,004420798
3,112	-0,006132813	-0,001045231
3,113	0,07480469	0,002309406
3,114	0,08949219	0,005597836
3,115	0,05195313	0,008807157
3,116	-0,006992188	0,01180224
3,117	-0,06480469	0,01457609
3,118	-0,04632812	0,0170987
3,119	0,0290625	0,01934838
3,12	0,07980469	0,02131274
3,121	0,08859375	0,02298949
3,122	0,05136719	0,02442872
3,123	-0,01089844	0,02551846
3,124	-0,02960938	0,02632
3,125	0,005820313	0,02685829
3,126	0,02464844	0,02716499
3,127	0,008398437	0,02728099
3,128	0,009375	0,02725829
3,129	0,03054688	0,02721467
3,13	0,03726563	0,02705057
3,131	0,0325	0,02687895
3,132	0,02660156	0,02675525
3,133	0,01265625	0,02673357
3,134	0,0078125	0,02686999
3,135	0,03	0,02722484
3,136	0,05089844	0,02791962
3,137	0,05492188	0,02883579
3,138	0,05855469	0,03006797
3,139	0,07	0,03164462
3,14	0,08125	0,03358715
3,141	0,06828125	0,03591249
3,142	0,04175781	0,03863438
3,143	0,03910156	0,04181363
3,144	0,04820312	0,04529037
3,145	0,03085938	0,04909381
3,146	-0,00171875	0,05319609
3,147	0,008242187	0,05756449
3,148	0,05117187	0,06216269
3,149	0,05167969	0,06695107
3,15	0,02226563	0,07193205
3,151	0,02828125	0,07691643
3,152	0,07152344	0,08189661
3,153	0,1144531	0,08682125
3,154	0,1379297	0,09164128
3,155	0,1438672	0,09631052
3,156	0,1186328	0,1007862
3,157	0,08484375	0,1050778
3,158	0,0884375	0,10901
3,159	0,1115234	0,1126129
3,16	0,1353516	0,1158739
3,161	0,1482422	0,1187858
3,162	0,1349219	0,121347
3,163	0,1156641	0,1235636
3,164	0,1050391	0,1255033
3,165	0,1267969	0,1270405
3,166	0,1560938	0,1282756
3,167	0,1256641	0,1292558
3,168	0,09019531	0,1300265
3,169	0,1111328	0,1306318
3,17	0,1406641	0,1311175
3,171	0,1542188	0,1315815
3,172	0,1660156	0,1319394
3,173	0,1578906	0,1323104
3,174	0,1338672	0,1327535
3,175	0,1313281	0,1333148
3,176	0,1363281	0,1340279
3,177	0,1198047	0,1349165
3,178	0,1078906	0,1360279
3,179	0,120625	0,1372882
3,18	0,1339844	0,1387549
3,181	0,144375	0,1404395
3,182	0,1498047	0,1423369
3,183	0,1366406	0,1444249
3,184	0,1217188	0,1466657
3,185	0,1168359	0,1490149
3,186	0,1296484	0,1514108
3,187	0,1569922	0,1538333
3,188	0,1805078	0,1562481
3,189	0,1971484	0,1586112
3,19	0,19125	0,1608658
3,191	0,1716797	0,1629433
3,192	0,1708203	0,1647495
3,193	0,1648828	0,1662821
3,194	0,1437891	0,1675015
3,195	0,1410547	0,1683857
3,196	0,1457031	0,1689093
3,197	0,1428125	0,1690392
3,198	0,1540234	0,1687352
3,199	0,1753906	0,1679179
3,2	0,1795703	0,1666832
3,201	0,1866797	0,1650229
3,202	0,2235156	0,1629636
3,203	0,2604688	0,1605264
3,204	0,2564453	0,1577222
3,205	0,1742578	0,1545524
3,206	0,07082031	0,1509628
3,207	0,05253906	0,1471264
3,208	0,08546875	0,1430488
3,209	0,1129688	0,1387766
3,21	0,1340625	0,1343448
3,211	0,1358203	0,1297737
3,212	0,1169922	0,1250689
3,213	0,09074219	0,1201636
3,214	0,08640625	0,1152563
3,215	0,1088672	0,1103152
3,216	0,1258594	0,1053608
3,217	0,1290625	0,100403
3,218	0,1138281	0,0954393
3,219	0,07964844	0,09045547
3,22	0,06027344	0,0853545
3,221	0,06773437	0,08034495
3,222	0,07894531	0,07534688
3,223	0,08355469	0,0703533
3,224	0,07769531	0,06535605
3,225	0,06429688	0,06034447
3,226	0,08316406	0,05530493
3,227	0,1117188	0,05013742
3,228	0,08597656	0,04508469
3,229	0,05839844	0,0400517
3,23	0,05878906	0,03503493
3,231	0,045	0,0300373
3,232	0,0065625	0,02506597
3,233	-0,06140625	0,02012953
3,234	-0,09824219	0,01514565
3,235	-0,05679688	0,01039206
3,236	-0,00078125	0,005774245
3,237	0,03195312	0,001295261
3,238	0,03113281	-0,003036079
3,239	-0,001640625	-0,007208278
3,24	-0,001484375	-0,01121172
3,241	0,02617188	-0,01513122
3,242	0,03066406	-0,0187087
3,243	0,03140625	-0,02205896
3,244	0,02011719	-0,02520407
3,245	-0,02085937	-0,02816231
3,246	-0,08007813	-0,03095056
3,247	-0,1371875	-0,03358876
3,248	-0,1323828	-0,03617899
3,249	-0,06632813	-0,03853713
3,25	-0,01578125	-0,04079866
3,251	-0,006054688	-0,04301616
3,252	-0,01929688	-0,04523283
3,253	-0,03183594	-0,0474828
3,254	-0,03515625	-0,04979381
3,255	-0,046875	-0,05224181
3,256	-0,045	-0,05470522
3,257	-0,02652344	-0,05728488
3,258	-0,0315625	-0,06001476
3,259	-0,03535156	-0,06291102
3,26	-0,04054688	-0,06597028
3,261	-0,09476563	-0,06917095
3,262	-0,1476563	-0,07250336
3,263	-0,1419531	-0,07585635
3,264	-0,1000391	-0,0792477
3,265	-0,04027344	-0,08265361
3,266	-0,0225	-0,08603381
3,267	-0,1099219	-0,08932956
3,268	-0,1827734	-0,09246527
3,269	-0,1374609	-0,09536625
3,27	-0,07132813	-0,09792301
3,271	-0,05742188	-0,1001108
3,272	-0,06269531	-0,1018889
3,273	-0,06363281	-0,1032126
3,274	-0,08128906	-0,1040327
3,275	-0,1091406	-0,104299
3,276	-0,1134766	-0,1039775
3,277	-0,1148438	-0,1030147
3,278	-0,1151563	-0,1014411
3,279	-0,07734375	-0,09928011
3,28	-0,04304687	-0,09656081
3,281	-0,06386719	-0,09331882
3,282	-0,09785156	-0,08960021
3,283	-0,1121094	-0,08548057
3,284	-0,1263281	-0,08099727
3,285	-0,1300781	-0,07626238
3,286	-0,111875	-0,07137235
3,287	-0,09503906	-0,06642365
3,288	-0,0846875	-0,06151502
3,289	-0,05910156	-0,05674983
3,29	-0,02195313	-0,05224594
3,291	-0,009570313	-0,04807964
3,292	-0,014375	-0,04434666
3,293	-0,02027344	-0,04112153
3,294	-0,03941406	-0,03846789
3,295	-0,04621094	-0,03644013
3,296	-0,03082031	-0,03508315
3,297	-0,02476562	-0,03442384
3,298	-0,03582031	-0,03448893
3,299	-0,04542969	-0,035248
3,3	-0,04359375	-0,03666647
3,301	-0,04316406	-0,03870014
3,302	-0,03929688	-0,04129509
3,303	-0,02261719	-0,04438545
3,304	-0,02953125	-0,04787102
3,305	-0,06867188	-0,05171159
3,306	-0,07675781	-0,05577296
3,307	-0,04003906	-0,05994648
3,308	-0,0134375	-0,06412888
3,309	-0,01011719	-0,0682205
3,31	-0,03953125	-0,07212273
3,311	-0,1169531	-0,07571785
3,312	-0,17875	-0,0789703
3,313	-0,1648438	-0,08178184
3,314	-0,09914062	-0,08409084
3,315	-0,03921875	-0,08585153
3,316	-0,04015625	-0,08703169
3,317	-0,08257813	-0,08761151
3,318	-0,08917969	-0,08757831
3,319	-0,07371094	-0,08696241
3,32	-0,09835937	-0,08579505
3,321	-0,1362109	-0,08412248
3,322	-0,1299219	-0,08199867
3,323	-0,09683594	-0,0794845
3,324	-0,06261719	-0,07664821
3,325	-0,02453125	-0,07357374
3,326	-0,02269531	-0,07032701
3,327	-0,06566406	-0,06701101
3,328	-0,09121094	-0,0637123
3,329	-0,07675781	-0,06050852
3,33	-0,0396875	-0,05746949
3,331	-0,02453125	-0,05465884
3,332	-0,05234375	-0,05214332
3,333	-0,05019531	-0,04994899
3,334	-0,01253906	-0,0481245
3,335	-0,01355469	-0,04669479
3,336	-0,04378906	-0,04567128
3,337	-0,06652344	-0,04505382
3,338	-0,07152344	-0,0448321
3,339	-0,05375	-0,04498532
3,34	-0,03195312	-0,04548409
3,341	-0,02738281	-0,04628255
3,342	-0,050625	-0,04733275
3,343	-0,08335937	-0,04858504
3,344	-0,07769531	-0,04998896
3,345	-0,04335937	-0,05149311
3,346	-0,03308594	-0,05303467
3,347	-0,05671875	-0,05458988
3,348	-0,08238281	-0,05609188
3,349	-0,08976563	-0,05749475
3,35	-0,09320312	-0,05876245
3,351	-0,08402344	-0,05986765
3,352	-0,04835938	-0,06079018
3,353	-0,02988281	-0,06150307
3,354	-0,05496094	-0,06203622
3,355	-0,07722656	-0,06237426
3,356	-0,06546875	-0,06252347
3,357	-0,03523437	-0,06249699
3,358	-0,004023438	-0,0623128
3,359	0,0146875	-0,0619919
3,36	0,0115625	-0,06154793
3,361	-0,02898438	-0,06103465
3,362	-0,1013281	-0,06047292
3,363	-0,1494141	-0,05988991
3,364	-0,1323438	-0,05930876
3,365	-0,1025781	-0,05874743
3,366	-0,1025391	-0,05821822
3,367	-0,07039062	-0,05772294
3,368	-0,03164062	-0,05728218
3,369	-0,05105469	-0,05689824
3,37	-0,0571875	-0,05657083
3,371	-0,03105469	-0,05629274
3,372	-0,0328125	-0,05605015
3,373	-0,05300781	-0,05582367
3,374	-0,0534375	-0,0555865
3,375	-0,03574219	-0,05532724
3,376	-0,02824219	-0,05502505
3,377	-0,03296875	-0,05466182
3,378	-0,03527344	-0,05421975
3,379	-0,03914062	-0,05368212
3,38	-0,03316406	-0,0530346
3,381	-0,01578125	-0,05226229
3,382	-0,02898438	-0,05137404
3,383	-0,08992187	-0,05036626
3,384	-0,1478125	-0,04924493
3,385	-0,1372266	-0,04802134
3,386	-0,07894531	-0,04671223
3,387	-0,04082031	-0,04533984
3,388	-0,03472656	-0,04392545
3,389	-0,04363281	-0,04251745
3,39	-0,04136719	-0,04113677
3,391	-0,02222656	-0,03981215
3,392	-0,01484375	-0,03857333
3,393	-0,02382813	-0,03745064
3,394	-0,03335938	-0,03647391
3,395	-0,03375	-0,03566374
3,396	-0,02960938	-0,03506117
3,397	-0,0221875	-0,03466759
3,398	-0,009492188	-0,03448732
3,399	-0,01441406	-0,03452079
3,4	-0,03109375	-0,03476444
3,401	-0,01875	-0,03520968
3,402	-0,01351563	-0,03583662
3,403	-0,04425781	-0,0366346
3,404	-0,04359375	-0,03756302
3,405	-0,02355469	-0,03858523
3,406	-0,05398438	-0,03966478
3,407	-0,1107813	-0,04076607
3,408	-0,120625	-0,04185425
3,409	-0,06617188	-0,04289536
3,41	0,006015625	-0,04385214
3,411	0,03410156	-0,04468793
3,412	-0,02164063	-0,04537277
3,413	-0,08722656	-0,04588462
3,414	-0,0790625	-0,04621011
3,415	-0,04132813	-0,04634493
3,416	-0,018125	-0,04629897
3,417	-0,01242188	-0,04606739
3,418	-0,02933594	-0,04566936
3,419	-0,05546875	-0,0451259
3,42	-0,0753125	-0,04446446
3,421	-0,0784375	-0,04371885
3,422	-0,06777344	-0,04292913
3,423	-0,05839844	-0,04214532
3,424	-0,04347656	-0,04140112
3,425	-0,02613281	-0,04074626
3,426	-0,01484375	-0,04022268
3,427	-0,008203125	-0,03986775
3,428	-0,02097656	-0,03971334
3,429	-0,03867188	-0,03978486
3,43	-0,0434375	-0,04009869
3,431	-0,04570313	-0,04067069
3,432	-0,04714844	-0,04150476
3,433	-0,05828125	-0,04259652
3,434	-0,07046875	-0,04393105
3,435	-0,05523438	-0,04548167
3,436	-0,02601563	-0,04720936
3,437	-0,01285156	-0,04905622
3,438	-0,0175	-0,05098714
3,439	-0,02722656	-0,05294349
3,44	-0,04414063	-0,05487038
3,441	-0,07976563	-0,05671013
3,442	-0,11875	-0,05840168
3,443	-0,1175	-0,05988114
3,444	-0,08371094	-0,06107795
3,445	-0,06921875	-0,06195544
3,446	-0,06625	-0,06247051
3,447	-0,05195313	-0,06259387
3,448	-0,04375	-0,06230409
3,449	-0,03449219	-0,06158771
3,45	-0,01492188	-0,0604406
3,451	-0,02371094	-0,05886647
3,452	-0,05390625	-0,05690335
3,453	-0,05585938	-0,05459173
3,454	-0,04191406	-0,05198215
3,455	-0,02855469	-0,04913007
3,456	-0,016875	-0,0460956
3,457	-0,0390625	-0,04294428
3,458	-0,07410156	-0,03973644
3,459	-0,08503906	-0,03658784
3,46	-0,08675781	-0,03357187
3,461	-0,06082031	-0,03076544
3,462	-0,02757813	-0,02823516
3,463	-0,03097656	-0,0260355
3,464	-0,04351563	-0,02420787
3,465	-0,05410156	-0,02274913
3,466	-0,05066406	-0,02177412
3,467	-0,02820312	-0,02126769
3,468	-0,008203125	-0,02122984
3,469	0,0084375	-0,0216425
3,47	0,010625	-0,02246615
3,471	0,01152344	-0,02363775
3,472	0,03742188	-0,02502212
3,473	0,05273438	-0,02667332
3,474	0,01722656	-0,02845584
3,475	-0,03445313	-0,03027829
3,476	-0,05457031	-0,03204357
3,477	-0,06585937	-0,03364579
3,478	-0,08949219	-0,03496883
3,479	-0,08570313	-0,03584133
3,48	-0,04304687	-0,03629338
3,481	-0,01953125	-0,03619094
3,482	-0,04699219	-0,03546131
3,483	-0,06792969	-0,03404637
3,484	-0,02859375	-0,03190178
3,485	0,03546875	-0,02899778
3,486	0,05476562	-0,02529612
3,487	0,003984375	-0,02088543
3,488	-0,05144531	-0,01577304
3,489	-0,05746094	-0,01000953
3,49	-0,06230469	-0,003664667
3,491	-0,07984375	0,003170232
3,492	-0,07054687	0,01038052
3,493	-0,01515625	0,01783085
3,494	0,05785156	0,02536967
3,495	0,07605469	0,03287067
3,496	0,05152344	0,04020375
3,497	0,06371094	0,04723492
3,498	0,1022266	0,05382246
3,499	0,1080859	0,0598166
3,5	0,08894531	0,06505831
3,501	0,0746875	0,06944309
3,502	0,07363281	0,07290022
3,503	0,0846875	0,07537751
3,504	0,09140625	0,07683227
3,505	0,09792969	0,07722788
3,506	0,1342969	0,07653634
3,507	0,1859375	0,07474107
3,508	0,1729297	0,07189465
3,509	0,07179687	0,06809688
3,51	-0,01707031	0,06345522
3,511	-0,04816406	0,05807697
3,512	-0,07589844	0,05206725
3,513	-0,08324219	0,04553257
3,514	-0,05410156	0,03857538
3,515	-0,03445313	0,03137809
3,516	-0,00671875	0,02410853
3,517	0,03824219	0,01692511
3,518	0,05230469	0,009963124
3,519	0,03996094	0,003333518
3,52	0,03152344	-0,002874958
3,521	0,0315625	-0,008625524
3,522	0,03636719	-0,01375284
3,523	0,02859375	-0,01822979
3,524	0,004921875	-0,02202478
3,525	-0,005664062	-0,02513383
3,526	0,005351563	-0,02758108
3,527	0,01652344	-0,02941856
3,528	0,01613281	-0,03077582
3,529	-0,005742187	-0,0315976
3,53	-0,03808594	-0,03204788
3,531	-0,04835938	-0,03224362
3,532	-0,04367187	-0,03230216
3,533	-0,04457031	-0,03234031
3,534	-0,05046875	-0,0324746
3,535	-0,06710937	-0,03286913
3,536	-0,08398438	-0,03349694
3,537	-0,07457031	-0,03452736
3,538	-0,05828125	-0,0360537
3,539	-0,06164063	-0,03813877
3,54	-0,06757813	-0,04081306
3,541	-0,05902344	-0,04407508
3,542	-0,0446875	-0,04792739
3,543	-0,04308594	-0,05222144
3,544	-0,05492188	-0,05694925
3,545	-0,076875	-0,06204062
3,546	-0,09242188	-0,06739875
3,547	-0,07605469	-0,0729003
3,548	-0,04777344	-0,07839796
3,549	-0,02382813	-0,08375911
3,55	-0,02570313	-0,08872211
3,551	-0,07542969	-0,09318385
3,552	-0,1185156	-0,09701279
3,553	-0,1256641	-0,1000862
3,554	-0,123125	-0,1022944
3,555	-0,1230859	-0,1035464
3,556	-0,1179688	-0,1038211
3,557	-0,09328125	-0,102962
3,558	-0,06789062	-0,1010253
3,559	-0,04898438	-0,09804979
3,56	-0,03363281	-0,09410061
3,561	-0,04292969	-0,08927416
3,562	-0,05804687	-0,08370417
3,563	-0,07039062	-0,07758881
3,564	-0,1010547	-0,07107581
3,565	-0,1105469	-0,06442604
3,566	-0,07253906	-0,05787591
3,567	-0,04945313	-0,05165267
3,568	-0,07597656	-0,04597084
3,569	-0,09835937	-0,04103189
3,57	-0,08515625	-0,03695837
3,571	-0,06367188	-0,03414272
3,572	-0,03375	-0,03272052
3,573	-0,01679687	-0,03284188
3,574	-0,054375	-0,03458953
3,575	-0,07230469	-0,03796122
3,576	-0,02960938	-0,04286049
3,577	-0,01777344	-0,04890144
3,578	-0,054375	-0,05648156
3,579	-0,07671875	-0,06526499
3,58	-0,08203125	-0,0750532
3,581	-0,09863281	-0,08556958
3,582	-0,09222656	-0,09643226
3,583	-0,04515625	-0,1071425
3,584	-0,029375	-0,1168135
3,585	-0,06453125	-0,1257527
3,586	-0,1320312	-0,1332918
3,587	-0,2204297	-0,1390407
3,588	-0,2512891	-0,1425908
3,589	-0,1902734	-0,1434926
3,59	-0,1046094	-0,1412533
3,591	-0,06996094	-0,1351031
3,592	-0,0671875	-0,1254482
3,593	-0,03878906	-0,111881
3,594	-0,02128906	-0,09430315
3,595	-0,03253906	-0,07266866
3,596	-0,06023438	-0,04698049
3,597	-0,08320313	-0,01730156
3,598	-0,0334375	0,01636154
3,599	0,04605469	0,05330906
3,6	0,08832031	0,09328828
3,601	0,1271094	0,1358619
3,602	0,1726172	0,1805312
3,603	0,2183984	0,2267167
3,604	0,2572656	0,2737423
3,605	0,2859375	0,3208569
3,606	0,3394531	0,36723
3,607	0,3997656	0,412271
3,608	0,4203125	0,455376
3,609	0,4296875	0,4959256
3,61	0,4576172	0,5332543
3,611	0,4914453	0,5666454
3,612	0,5380078	0,5953461
3,613	0,6058984	0,6188659
3,614	0,6683203	0,6370339
3,615	0,7252734	0,6497236
3,616	0,7657031	0,6568159
3,617	0,7380469	0,6581755
3,618	0,6877734	0,6536657
3,619	0,6920703	0,6432082
3,62	0,7252734	0,626967
3,621	0,7175	0,6055395
3,622	0,6594141	0,5794836
3,623	0,5904687	0,5493182
3,624	0,5211719	0,5155181
3,625	0,469375	0,478544
3,626	0,4364844	0,4388997
3,627	0,3938672	0,3972313
3,628	0,3242188	0,3544186
3,629	0,2046094	0,3112221
3,63	0,09210938	0,2682999
3,631	0,07636719	0,2262186
3,632	0,1233203	0,1854812
3,633	0,139375	0,1464839
3,634	0,1002734	0,1099048
3,635	0,06148438	0,07609234
3,636	0,04671875	0,0453557
3,637	0,02417969	0,01791065
3,638	-0,002851562	-0,006106921
3,639	-0,02175781	-0,02663124
3,64	-0,0278125	-0,04385767
3,641	-0,02152344	-0,05732374
3,642	-0,04777344	-0,06750213
3,643	-0,09691406	-0,07468493
3,644	-0,08996094	-0,07916376
3,645	-0,04855469	-0,08122608
3,646	-0,04132813	-0,08116756
3,647	-0,044375	-0,07957484
3,648	-0,03363281	-0,0760811
3,649	-0,02453125	-0,07151499
3,65	-0,006796875	-0,06634834
3,651	0,01523438	-0,06095922
3,652	0,01996094	-0,05563974
3,653	0,005703125	-0,05062089
3,654	-0,02851562	-0,04633345
3,655	-0,05378906	-0,04231665
3,656	-0,05578125	-0,03911372
3,657	-0,08046875	-0,03692556
3,658	-0,1189063	-0,03585087
3,659	-0,1182422	-0,03589684
3,66	-0,1039844	-0,03700162
3,661	-0,1065234	-0,03919261
3,662	-0,1167188	-0,04197546
3,663	-0,1347266	-0,04543225
3,664	-0,09925781	-0,04946911
3,665	-0,01859375	-0,0539552
3,666	-0,001914063	-0,05872738
3,667	-0,02210938	-0,0636011
3,668	-0,03960938	-0,06842531
3,669	-0,07867188	-0,07290872
3,67	-0,09054687	-0,07696819
3,671	-0,06289063	-0,08050092
3,672	-0,0471875	-0,08342444
3,673	-0,05511719	-0,08567443
3,674	-0,07890625	-0,08720488
3,675	-0,1093359	-0,08799108
3,676	-0,1205078	-0,08803765
3,677	-0,09453125	-0,08738125
3,678	-0,0584375	-0,08608175
3,679	-0,03984375	-0,08421805
3,68	-0,03089844	-0,08188417
3,681	-0,02	-0,07918644
3,682	0,003789062	-0,07623835
3,683	0,01550781	-0,07317327
3,684	-0,02773438	-0,07011519
3,685	-0,1092578	-0,06717935
3,686	-0,1710938	-0,06446717
3,687	-0,1635156	-0,06206521
3,688	-0,09203125	-0,06004457
3,689	-0,0365625	-0,05845672
3,69	-0,06023438	-0,05735571
3,691	-0,09882813	-0,05676994
3,692	-0,08863281	-0,05670576
3,693	-0,08625	-0,0571447
3,694	-0,08921875	-0,05804401
3,695	-0,06851562	-0,0593383
3,696	-0,08761719	-0,06092545
3,697	-0,1207031	-0,06276666
3,698	-0,08273437	-0,06476171
3,699	-0,02105469	-0,06682212
3,7	-0,01332031	-0,06885452
3,701	-0,03027344	-0,07075969
3,702	-0,03355469	-0,07243348
3,703	-0,0334375	-0,0737392
3,704	-0,0359375	-0,07468228
3,705	-0,05207031	-0,07517152
3,706	-0,07191406	-0,07516188
3,707	-0,07542969	-0,07462125
3,708	-0,08136719	-0,0735276
3,709	-0,1045313	-0,0718681
3,71	-0,1253906	-0,06960703
3,711	-0,116875	-0,06686704
3,712	-0,07585938	-0,06366009
3,713	-0,0178125	-0,06004088
3,714	0,02703125	-0,05607072
3,715	0,03	-0,05181521
3,716	-0,01554688	-0,04734335
3,717	-0,0803125	-0,04269832
3,718	-0,1033984	-0,03804684
3,719	-0,08488281	-0,0334403
3,72	-0,06347656	-0,02895041
3,721	-0,04128906	-0,02463999
3,722	-0,02570313	-0,02056295
3,723	-0,01652344	-0,01676441
3,724	-0,009101563	-0,01325144
3,725	-0,01441406	-0,01013787
3,726	-0,01292969	-0,007406433
3,727	0,00921875	-0,005057648
3,728	0,01609375	-0,003082348
3,729	-0,003515625	-0,001462525
3,73	-0,0065625	-0,0001714436
3,731	0,006757812	0,0008625483
3,732	0,007070313	0,001577019
3,733	0,02460937	0,002065532
3,734	0,05023437	0,002382821
3,735	0,02734375	0,002580112
3,736	-0,01222656	0,002705661
3,737	-0,01953125	0,002806273
3,738	-0,01203125	0,002970003
3,739	-0,0165625	0,003120094
3,74	-0,02027344	0,003348341
3,741	-0,00359375	0,00369204
3,742	0,006328125	0,004176659
3,743	0,001523438	0,004817966
3,744	-0,005273438	0,005624884
3,745	-0,01175781	0,006641056
3,746	0,01402344	0,007750189
3,747	0,04984375	0,00899313
3,748	0,03285156	0,01036314
3,749	0,0009765625	0,01184691
3,75	0,01453125	0,01342665
3,751	0,03824219	0,01508252
3,752	0,03792969	0,01682821
3,753	0,0315625	0,01854208
3,754	0,03109375	0,02023925
3,755	0,02308594	0,02190273
3,756	-0,01226563	0,02351817
3,757	-0,03113281	0,0250752
3,758	-0,01109375	0,02656843
3,759	0,001210938	0,02803127
3,76	0,01933594	0,02936372
3,761	0,04699219	0,03059894
3,762	0,05589844	0,03174097
3,763	0,06683594	0,032799
3,764	0,07335938	0,03378879
3,765	0,05230469	0,03473326
3,766	0,03054688	0,03570175
3,767	0,03175781	0,03660006
3,768	0,05074219	0,03748661
3,769	0,06191406	0,03838025
3,77	0,04253906	0,0393016
3,771	0,01703125	0,04027549
3,772	0,0034375	0,04133219
3,773	0,01179688	0,04255296
3,774	0,05871094	0,04382622
3,775	0,08765625	0,04521447
3,776	0,06171875	0,04673125
3,777	0,02191406	0,04838896
3,778	-0,01816406	0,05020141
3,779	-0,02691406	0,05218525
3,78	0,03328125	0,0544053
3,781	0,103125	0,05673566
3,782	0,1304297	0,05922495
3,783	0,1339844	0,06187339
3,784	0,1126953	0,06467901
3,785	0,05585938	0,06763881
3,786	0,005039063	0,07074933
3,787	0,01238281	0,07404609
3,788	0,05933594	0,07740081
3,789	0,09378906	0,08084307
3,79	0,1135156	0,08436031
3,791	0,1330469	0,087937
3,792	0,1280859	0,09155421
3,793	0,075625	0,09518972
3,794	0,04035156	0,09885436
3,795	0,08300781	0,1024147
3,796	0,135	0,1058896
3,797	0,1423828	0,1092599
3,798	0,1426953	0,1125034
3,799	0,1500781	0,1155954
3,8	0,1379688	0,1185091
3,801	0,1052344	0,1212577
3,802	0,08328125	0,123702
3,803	0,08132813	0,1258774
3,804	0,09191406	0,1277783
3,805	0,1159766	0,1293991
3,806	0,1375	0,1307357
3,807	0,1403125	0,1317876
3,808	0,1372656	0,1326088
3,809	0,1328516	0,1330765
3,81	0,1155078	0,1332702
3,811	0,1223828	0,1332216
3,812	0,1653125	0,1329631
3,813	0,1683984	0,1325305
3,814	0,1258203	0,1319665
3,815	0,1134766	0,1313705
3,816	0,1332812	0,130659
3,817	0,1308203	0,1299414
3,818	0,09757813	0,1292752
3,819	0,07582031	0,1287134
3,82	0,09171875	0,1283075
3,821	0,12625	0,1281094
3,822	0,1679297	0,1282066
3,823	0,1982812	0,1285444
3,824	0,1997266	0,129199
3,825	0,1898047	0,1302018
3,826	0,1652734	0,1315733
3,827	0,1441016	0,1333232
3,828	0,13875	0,135451
3,829	0,1017188	0,1379555
3,83	0,05484375	0,140788
3,831	0,06683594	0,1439383
3,832	0,1244141	0,1473766
3,833	0,1833203	0,151061
3,834	0,2163672	0,1549346
3,835	0,2047656	0,158925
3,836	0,1809375	0,1629278
3,837	0,1659766	0,166916
3,838	0,1285156	0,1708161
3,839	0,09652344	0,1745688
3,84	0,1232813	0,1781076
3,841	0,1628906	0,1813531
3,842	0,1542188	0,1842126
3,843	0,1479297	0,1865424
3,844	0,1916016	0,188394
3,845	0,2325	0,1897064
3,846	0,241875	0,1904601
3,847	0,2295703	0,1906299
3,848	0,1999219	0,1901787
3,849	0,1863672	0,1890571
3,85	0,1949609	0,1871523
3,851	0,2151562	0,1846265
3,852	0,2346094	0,1814721
3,853	0,2098828	0,1777331
3,854	0,1586719	0,1734432
3,855	0,1289453	0,1686194
3,856	0,1300781	0,1632634
3,857	0,1580859	0,1572988
3,858	0,1711719	0,1509658
3,859	0,16875	0,1442711
3,86	0,1867578	0,1372785
3,861	0,1671484	0,1300363
3,862	0,1041797	0,1225749
3,863	0,07503906	0,1149088
3,864	0,07042969	0,1069631
3,865	0,07425781	0,09899798
3,866	0,07234375	0,09097697
3,867	0,05398438	0,08293266
3,868	0,04925781	0,07488911
3,869	0,03679688	0,06686176
3,87	0,03441406	0,05885905
3,871	0,05921875	0,05080006
3,872	0,04933594	0,04294743
3,873	0,01847656	0,03521574
3,874	0,0178125	0,02760789
3,875	0,04277344	0,02013251
3,876	0,06203125	0,01280491
3,877	0,044375	0,005646259
3,878	-0,003789062	-0,001406904
3,879	-0,04746094	-0,008073803
3,88	-0,0534375	-0,01445729
3,881	-0,01394531	-0,02055875
3,882	0,02101563	-0,02636542
3,883	0,02945313	-0,03185064
3,884	0,03191406	-0,03697828
3,885	-0,004492188	-0,04179851
3,886	-0,06648437	-0,04602782
3,887	-0,09125	-0,04978227
3,888	-0,08359375	-0,05307675
3,889	-0,05234375	-0,05591454
3,89	-0,0153125	-0,05828959
3,891	-0,01921875	-0,06019353
3,892	-0,0609375	-0,06170834
3,893	-0,1005078	-0,06260903
3,894	-0,1110547	-0,06304794
3,895	-0,1055859	-0,06308481
3,896	-0,09574219	-0,06277174
3,897	-0,08308594	-0,0621563
3,898	-0,08328125	-0,06128827
3,899	-0,07570312	-0,06029542
3,9	-0,05292969	-0,05905016
3,901	-0,05207031	-0,05772209
3,902	-0,07949219	-0,05640043
3,903	-0,0865625	-0,05516316
3,904	-0,04496094	-0,05407914
3,905	0,0003515625	-0,05321208
3,906	0,0009765625	-0,052667
3,907	-0,039375	-0,0523768
3,908	-0,058125	-0,05244692
3,909	-0,03621094	-0,0529233
3,91	-0,0296875	-0,05383523
3,911	-0,02929688	-0,05519542
3,912	-0,02242188	-0,05700094
3,913	-0,06277344	-0,05924973
3,914	-0,1278125	-0,0618679
3,915	-0,1397656	-0,06484016
3,916	-0,1046094	-0,06812449
3,917	-0,07261719	-0,07166701
3,918	-0,06507813	-0,07540047
3,919	-0,07105469	-0,07924388
3,92	-0,06035156	-0,08310302
3,921	-0,02527344	-0,08688789
3,922	0,001601563	-0,09051907
3,923	-0,01539063	-0,09392076
3,924	-0,0565625	-0,09701928
3,925	-0,08589844	-0,09974128
3,926	-0,1228906	-0,102014
3,927	-0,1742969	-0,1037681
3,928	-0,1991406	-0,1049537
3,929	-0,1877734	-0,1055503
3,93	-0,1586719	-0,105548
3,931	-0,12375	-0,1049463
3,932	-0,1160938	-0,1037541
3,933	-0,1295313	-0,1019913
3,934	-0,1144922	-0,09970054
3,935	-0,09183594	-0,09690967
3,936	-0,1067578	-0,09370552
3,937	-0,1228516	-0,09016748
3,938	-0,07625	-0,08637675
3,939	-0,01613281	-0,08241729
3,94	-0,02285156	-0,07837811
3,941	-0,03183594	-0,07436621
3,942	-0,002617188	-0,07044683
3,943	-0,009140625	-0,06672762
3,944	-0,05425781	-0,06329259
3,945	-0,07613281	-0,06021435
3,946	-0,04976563	-0,05755568
3,947	-0,02300781	-0,05537072
3,948	-0,04835938	-0,05370462
3,949	-0,08386719	-0,05258806
3,95	-0,08179688	-0,05203104
3,951	-0,0696875	-0,05203034
3,952	-0,07589844	-0,0525703
3,953	-0,08582031	-0,05362315
3,954	-0,08625	-0,05514836
3,955	-0,07058594	-0,05707551
3,956	-0,04042969	-0,05938359
3,957	-0,03355469	-0,06197489
3,958	-0,06246094	-0,06476856
3,959	-0,09613281	-0,06768437
3,96	-0,1090625	-0,07064127
3,961	-0,08121094	-0,07355553
3,962	-0,03675781	-0,07631897
3,963	-0,02132813	-0,0789087
3,964	-0,04644531	-0,08122585
3,965	-0,1163672	-0,08320622
3,966	-0,1901953	-0,0847981
3,967	-0,1846484	-0,08596048
3,968	-0,09296875	-0,08666161
3,969	-0,03347656	-0,08686868
3,97	-0,08585938	-0,08660357
3,971	-0,1358203	-0,08586371
3,972	-0,08757813	-0,08466779
3,973	-0,014375	-0,08304461
3,974	0,03179688	-0,08103289
3,975	0,04320313	-0,07868135
3,976	0,003203125	-0,07605408
3,977	-0,04746094	-0,07320496
3,978	-0,06707031	-0,07021224
3,979	-0,08488281	-0,06714664
3,98	-0,1414063	-0,0640768
3,981	-0,1719922	-0,06107076
3,982	-0,1192578	-0,0581974
3,983	-0,06546875	-0,0555358
3,984	-0,04941406	-0,05312284
3,985	-0,04636719	-0,0510201
3,986	-0,05449219	-0,04926892
3,987	-0,05785156	-0,04790093
3,988	-0,05585938	-0,04693971
3,989	-0,04488281	-0,04640162
3,99	-0,01847656	-0,04629516
3,991	-0,01804688	-0,04661553
3,992	-0,05429688	-0,04734116
3,993	-0,07375	-0,04844456
3,994	-0,07265625	-0,04989271
3,995	-0,07664063	-0,05164708
3,996	-0,06890625	-0,05366261
3,997	-0,04464844	-0,05587497
3,998	-0,01679687	-0,05825872
3,999	-0,01367188	-0,06073638
4	-0,05085937	-0,06324705
4,001	-0,08910156	-0,06573373
4,002	-0,09039063	-0,06814167
4,003	-0,06058594	-0,07041636
4,004	-0,05167969	-0,07248956
4,005	-0,07058594	-0,07435067
4,006	-0,06152344	-0,07594518
4,007	-0,03570313	-0,0772413
4,008	-0,05164063	-0,07821525
4,009	-0,103125	-0,07884959
4,01	-0,1219141	-0,07913231
4,011	-0,09070312	-0,0790527
4,012	-0,06351563	-0,07862875
4,013	-0,06039063	-0,07787501
4,014	-0,07117187	-0,07681442
4,015	-0,1036719	-0,07547345
4,016	-0,1354297	-0,07388201
4,017	-0,1205078	-0,07207422
4,018	-0,07621094	-0,07009421
4,019	-0,05164063	-0,06797544
4,02	-0,04867188	-0,06577588
4,021	-0,04609375	-0,06354449
4,022	-0,0359375	-0,06132624
4,023	-0,02214844	-0,05916322
4,024	-0,01941406	-0,0570962
4,025	-0,04363281	-0,05516914
4,026	-0,06355469	-0,05341038
4,027	-0,05191406	-0,05185763
4,028	-0,05496094	-0,05053724
4,029	-0,08289062	-0,04946838
4,03	-0,09347656	-0,04866374
4,031	-0,08757813	-0,04813008
4,032	-0,07371094	-0,04786175
4,033	-0,04277344	-0,04787204
4,034	-0,02972656	-0,04813982
4,035	-0,04722656	-0,04864672
4,036	-0,03871094	-0,04937051
4,037	-0,02910156	-0,05028447
4,038	-0,05769531	-0,05135641
4,039	-0,06945313	-0,05253259
4,04	-0,05664063	-0,05381621
4,041	-0,04863281	-0,05514676
4,042	-0,04804688	-0,05648229
4,043	-0,04308594	-0,05778339
4,044	-0,01644531	-0,05901179
4,045	0,0125	-0,0601289
4,046	0,0365625	-0,06108098
4,047	0,04472656	-0,06187479
4,048	-0,02277344	-0,06246571
4,049	-0,1269531	-0,06283027
4,05	-0,1753906	-0,06295135
4,051	-0,1775	-0,06281742
4,052	-0,1501953	-0,06242211
4,053	-0,09972656	-0,06175919
4,054	-0,07683594	-0,06085077
4,055	-0,1219141	-0,0597054
4,056	-0,1873047	-0,05834113
4,057	-0,1629688	-0,05678044
4,058	-0,03542969	-0,05505078
4,059	0,070625	-0,05318537
4,06	0,08230469	-0,05122572
4,061	0,06792969	-0,04920861
4,062	0,04144531	-0,04717905
4,063	-0,01796875	-0,04517805
4,064	-0,05144531	-0,04324529
4,065	-0,04964844	-0,04142005
4,066	-0,03152344	-0,03974204
4,067	-0,00859375	-0,03825093
4,068	0,002460938	-0,03698246
4,069	-0,005859375	-0,03596245
4,07	-0,06058594	-0,03521111
4,071	-0,1079297	-0,03474296
4,072	-0,08957031	-0,03456688
4,073	-0,06320312	-0,03468562
4,074	-0,06234375	-0,03508501
4,075	-0,06753906	-0,03578122
4,076	-0,04984375	-0,03674169
4,077	-0,008867188	-0,03794007
4,078	0,008320312	-0,0393458
4,079	-0,01136719	-0,04092277
4,08	-0,07609375	-0,0426279
