Interval=	0,001 s
ExcelDateTime=	4,6092631594186350e+004	11.03.2026 15:09:29,737701
TimeFormat=	StartOfBlock
DateFormat=	
ChannelTitle=	Channel 3	Channel 4
Range=	5,000 mV	5,000 mV
0,015	-0,04425781	-0,2348927
0,016	-0,04425781	-0,2348927
0,017	0,1320703	-0,2348927
0,018	0,02859375	-0,2348927
0,019	-0,06011719	-0,2348927
0,02	0,1469141	-0,2348927
0,021	0,3132422	-0,2348927
0,022	0,1995312	-0,2348927
0,023	0,02964844	-0,2348927
0,024	-0,0303125	-0,2348927
0,025	-0,1021484	-0,2348927
0,026	-0,2801172	-0,2348927
0,027	-0,4290625	-0,2348927
0,028	-0,4457422	-0,2348927
0,029	-0,3782422	-0,2348927
0,03	-0,2824219	-0,2348927
0,031	-0,1643359	-0,2348927
0,032	0,02015625	-0,2348927
0,033	0,2239844	-0,2348927
0,034	0,2919922	-0,2348927
0,035	0,3045703	-0,2348927
0,036	0,3990234	-0,2348927
0,037	0,4278906	-0,2348927
0,038	0,3173828	-0,2348927
0,039	0,1848828	-0,2348927
0,04	0,09417969	-0,2347971
0,041	0,07363281	-0,234797
0,042	0,1516016	-0,2347971
0,043	0,26125	-0,234797
0,044	0,2890625	-0,2347971
0,045	0,2235156	-0,234797
0,046	0,094375	-0,2347971
0,047	-0,02574219	-0,2347971
0,048	-0,059375	-0,234797
0,049	-0,1207422	-0,2347971
0,05	-0,2694922	-0,234797
0,051	-0,3177344	-0,2347971
0,052	-0,2083594	-0,234797
0,053	-0,1407031	-0,2347971
0,054	-0,2071875	-0,2347971
0,055	-0,2695703	-0,234797
0,056	-0,1475	-0,2347971
0,057	0,09496094	-0,234797
0,058	0,1473438	-0,2347971
0,059	-0,000390625	-0,234797
0,06	-0,08671875	-0,2347971
0,061	-0,06269531	-0,2347971
0,062	0,003007813	-0,234797
0,063	0,04636719	-0,2347971
0,064	0,01308594	-0,234797
0,065	-0,02605469	-0,2347971
0,066	-0,006679687	-0,234797
0,067	-0,02289063	-0,2347971
0,068	-0,06765625	-0,2347971
0,069	0,02015625	-0,234797
0,07	0,2427344	-0,2347971
0,071	0,5020703	-0,234797
0,072	0,6130859	-0,2347971
0,073	0,3880859	-0,234797
0,074	0,03828125	-0,2347971
0,075	-0,08851563	-0,2347971
0,076	0,006953125	-0,234797
0,077	0,0996875	-0,2347971
0,078	0,07429687	-0,234797
0,079	-0,029375	-0,2347971
0,08	-0,1382422	-0,234797
0,081	-0,1685156	-0,2347971
0,082	-0,1026172	-0,2347971
0,083	-0,04472656	-0,234797
0,084	-0,0575	-0,2347971
0,085	-0,08457031	-0,234797
0,086	-0,0690625	-0,2347971
0,087	0,00234375	-0,234797
0,088	0,06609375	-0,2347971
0,089	0,02753906	-0,2347971
0,09	-0,04628906	-0,234797
0,091	-0,02460937	-0,2347971
0,092	0,09613281	-0,234797
0,093	0,2605078	-0,2347971
0,094	0,3206641	-0,234797
0,095	0,1113672	-0,2347971
0,096	-0,2141016	-0,2347971
0,097	-0,3284375	-0,234797
0,098	-0,1959375	-0,2347971
0,099	-0,04414063	-0,234797
0,1	-0,03285156	-0,2347971
0,101	-0,07988281	-0,234797
0,102	-0,06535156	-0,2347971
0,103	-0,04308594	-0,2347971
0,104	0,05332031	-0,234797
0,105	0,3383984	-0,2347971
0,106	0,5105859	-0,234797
0,107	0,2835547	-0,2347971
0,108	0,04570313	-0,234797
0,109	0,2398828	-0,2347971
0,11	0,3910547	-0,2347971
0,111	-0,01363281	-0,234797
0,112	-0,4466016	-0,2347971
0,113	-0,4671875	-0,234797
0,114	-0,2769922	-0,2347971
0,115	0,02492188	-0,234797
0,116	0,3557812	-0,2347971
0,117	0,5217969	-0,2347971
0,118	0,3287891	-0,234797
0,119	-0,1773828	-0,2347971
0,12	-0,5030078	-0,234797
0,121	-0,4150391	-0,2347971
0,122	-0,2371875	-0,234797
0,123	-0,1633203	-0,2347971
0,124	-0,1018359	-0,2347971
0,125	-0,04898438	-0,234797
0,126	-0,01730469	-0,2347971
0,127	0,04523438	-0,234797
0,128	0,02984375	-0,2347971
0,129	-0,1074609	-0,234797
0,13	-0,2077734	-0,2347971
0,131	-0,2242187	-0,2347971
0,132	-0,2259766	-0,234797
0,133	-0,2559375	-0,2347971
0,134	-0,2781641	-0,234797
0,135	-0,2261328	-0,2347971
0,136	-0,1503516	-0,234797
0,137	-0,1092578	-0,2347971
0,138	-0,05917969	-0,2347971
0,139	0,005039063	-0,234797
0,14	0,03769531	-0,2347971
0,141	0,01539063	-0,234797
0,142	-0,08457031	-0,2347971
0,143	-0,2033594	-0,234797
0,144	-0,2409375	-0,2347971
0,145	-0,2480078	-0,2347971
0,146	-0,2907812	-0,234797
0,147	-0,3311328	-0,2347971
0,148	-0,335625	-0,234797
0,149	-0,2992188	-0,2347971
0,15	-0,2867188	-0,234797
0,151	-0,3201172	-0,2347971
0,152	-0,2734375	-0,2347971
0,153	-0,08902344	-0,234797
0,154	0,1207422	-0,2347971
0,155	0,226875	-0,234797
0,156	0,2267578	-0,2347971
0,157	0,1470703	-0,234797
0,158	-0,0159375	-0,2347971
0,159	-0,1511328	-0,2347971
0,16	-0,1553906	-0,234797
0,161	-0,1138281	-0,2347971
0,162	-0,1099219	-0,234797
0,163	-0,0959375	-0,2347971
0,164	-0,07785156	-0,234797
0,165	-0,09445312	-0,2347971
0,166	-0,1115234	-0,2347971
0,167	-0,1316016	-0,234797
0,168	0,01554688	-0,2347971
0,169	0,4067578	-0,234797
0,17	0,5305469	-0,2347971
0,171	0,2292969	-0,234797
0,172	-0,06625	-0,2347971
0,173	-0,3364453	-0,2347971
0,174	-0,6428516	-0,234797
0,175	-0,7385938	-0,2347971
0,176	-0,6460938	-0,234797
0,177	-0,6353906	-0,2347971
0,178	-0,7398047	-0,234797
0,179	-0,85625	-0,2347971
0,18	-0,9459766	-0,2347971
0,181	-0,8967969	-0,234797
0,182	-0,6116797	-0,2347971
0,183	-0,2039063	-0,234797
0,184	0,1321484	-0,2347971
0,185	0,3477344	-0,234797
0,186	0,4914062	-0,2347971
0,187	0,6838281	-0,2347971
0,188	0,9662109	-0,234797
0,189	1,036836	-0,2347971
0,19	0,7334375	-0,234797
0,191	0,4826172	-0,2347971
0,192	0,6855859	-0,234797
0,193	0,9141797	-0,2347971
0,194	0,5750781	-0,2347971
0,195	0,1028906	-0,234797
0,196	0,1318359	-0,2347971
0,197	0,3353906	-0,234797
0,198	0,3491406	-0,2347971
0,199	0,46	-0,234797
0,2	0,6707031	-0,2347971
0,201	0,6420703	-0,2347971
0,202	0,5309766	-0,234797
0,203	0,5340625	-0,2347971
0,204	0,436875	-0,234797
0,205	0,2268359	-0,2347971
0,206	0,08265625	-0,234797
0,207	0,05992187	-0,2347971
0,208	0,1436719	-0,2347971
0,209	0,1693359	-0,234797
0,21	0,044375	-0,2347971
0,211	-0,085625	-0,234797
0,212	-0,1255859	-0,2347971
0,213	-0,05816406	-0,234797
0,214	0,09332031	-0,2347971
0,215	0,1609766	-0,2347971
0,216	0,06597656	-0,234797
0,217	-0,095	-0,2347971
0,218	-0,2218359	-0,234797
0,219	-0,3141406	-0,2347971
0,22	-0,4586328	-0,234797
0,221	-0,5368359	-0,2347971
0,222	-0,4496875	-0,2347971
0,223	-0,3794141	-0,234797
0,224	-0,3038672	-0,2347971
0,225	-0,08171875	-0,234797
0,226	0,1332812	-0,2347971
0,227	0,1094922	-0,234797
0,228	-0,1430078	-0,2347971
0,229	-0,3374609	-0,2347971
0,23	-0,3285156	-0,234797
0,231	-0,2583984	-0,2347971
0,232	-0,19125	-0,234797
0,233	-0,1688281	-0,2347971
0,234	-0,2286328	-0,234797
0,235	-0,2930859	-0,2347971
0,236	-0,3642187	-0,2347779
0,237	-0,4646094	-0,2348011
0,238	-0,4427734	-0,2348592
0,239	-0,2210938	-0,2349531
0,24	-0,05953125	-0,2350687
0,241	-0,1258594	-0,2351736
0,242	-0,2466797	-0,2352208
0,243	-0,2773047	-0,2351331
0,244	-0,1578516	-0,2349442
0,245	0,0340625	-0,2346301
0,246	0,04570313	-0,234222
0,247	-0,1094531	-0,2337861
0,248	-0,1445703	-0,2334182
0,249	0,003085938	-0,2332289
0,25	0,08554688	-0,2333196
0,251	0,009414063	-0,2337667
0,252	-0,02359375	-0,2345819
0,253	-0,03433594	-0,235705
0,254	-0,2014844	-0,2369952
0,255	-0,430625	-0,2382367
0,256	-0,4688281	-0,2391571
0,257	-0,2515234	-0,2394707
0,258	-0,1061328	-0,2388489
0,259	-0,2480078	-0,2370625
0,26	-0,4105469	-0,2339557
0,261	-0,3903516	-0,2294843
0,262	-0,2963281	-0,2237291
0,263	-0,2465234	-0,2168983
0,264	-0,2240234	-0,2093013
0,265	-0,1919531	-0,2013833
0,266	-0,1710156	-0,1935675
0,267	-0,1751953	-0,1862794
0,268	-0,2065234	-0,1799011
0,269	-0,1971875	-0,174749
0,27	-0,1213672	-0,1710608
0,271	-0,1207031	-0,1689226
0,272	-0,2109375	-0,1686252
0,273	-0,2864453	-0,1701218
0,274	-0,2841016	-0,1733718
0,275	-0,2119141	-0,1782755
0,276	-0,2789844	-0,18467
0,277	-0,5225391	-0,1923232
0,278	-0,556875	-0,2008243
0,279	-0,2421094	-0,2101651
0,28	0,066875	-0,2199218
0,281	0,1463281	-0,2297568
0,282	0,1109375	-0,2393095
0,283	0,06113281	-0,2481903
0,284	-0,02335938	-0,2559813
0,285	-0,1322266	-0,2621513
0,286	-0,2132031	-0,2666204
0,287	-0,2514844	-0,2690268
0,288	-0,2649219	-0,2691553
0,289	-0,2594141	-0,2668386
0,29	-0,2489844	-0,2619524
0,291	-0,2708203	-0,2544203
0,292	-0,3265625	-0,2441622
0,293	-0,3795312	-0,2314516
0,294	-0,3647266	-0,2164102
0,295	-0,2572266	-0,1992703
0,296	-0,1605078	-0,1803105
0,297	-0,2128906	-0,1598569
0,298	-0,4458984	-0,1382875
0,299	-0,6963672	-0,1160054
0,3	-0,6598438	-0,09356384
0,301	-0,2435547	-0,07138455
0,302	0,1488281	-0,04989659
0,303	0,2166797	-0,02950965
0,304	0,2410547	-0,01061914
0,305	0,3176172	0,006393209
0,306	0,2222266	0,02120401
0,307	0,08695313	0,03342391
0,308	0,1198438	0,04293705
0,309	0,1823828	0,04965111
0,31	0,1283203	0,05352641
0,311	0,0734375	0,05457092
0,312	0,09210938	0,05284517
0,313	0,08324219	0,04854001
0,314	0,1219531	0,04169829
0,315	0,2808984	0,03275256
0,316	0,2756641	0,02207704
0,317	0,04945313	0,01004572
0,318	-0,03941406	-0,002969466
0,319	-0,005078125	-0,01659096
0,32	-0,07523438	-0,03036287
0,321	-0,1814453	-0,04404246
0,322	-0,2783203	-0,05710221
0,323	-0,3558984	-0,06915174
0,324	-0,3776172	-0,07987548
0,325	-0,3996875	-0,08903122
0,326	-0,4083984	-0,0964433
0,327	-0,3559766	-0,1019811
0,328	-0,2340625	-0,1056187
0,329	-0,04839844	-0,1073072
0,33	0,0978125	-0,1070897
0,331	0,1159375	-0,1050802
0,332	0,06667969	-0,1014597
0,333	0,06011719	-0,09647265
0,334	0,1242969	-0,09045471
0,335	0,1600391	-0,08364224
0,336	0,1049609	-0,07642209
0,337	0,0965625	-0,06913993
0,338	0,1809375	-0,06212762
0,339	0,1235547	-0,05570074
0,34	-0,1122656	-0,05015696
0,341	-0,2413281	-0,04581094
0,342	-0,22375	-0,04278955
0,343	-0,2397656	-0,04133938
0,344	-0,2198438	-0,04159459
0,345	-0,115625	-0,04361587
0,346	-0,07023438	-0,04739007
0,347	-0,09503906	-0,05283127
0,348	-0,1709766	-0,05979362
0,349	-0,2167969	-0,06804113
0,35	-0,1605469	-0,07736129
0,351	-0,1246094	-0,087491
0,352	-0,09308594	-0,0981319
0,353	-0,01414063	-0,1089515
0,354	0,04792969	-0,1195869
0,355	0,05683594	-0,1296497
0,356	-0,03351563	-0,1387898
0,357	-0,1685156	-0,1466941
0,358	-0,2421484	-0,1530954
0,359	-0,2340625	-0,1577699
0,36	-0,1275	-0,160538
0,361	0,04832031	-0,1612697
0,362	0,1571875	-0,1599055
0,363	0,06277344	-0,1564107
0,364	-0,2061719	-0,1508817
0,365	-0,3939844	-0,1434579
0,366	-0,3519922	-0,1343317
0,367	-0,2753516	-0,1237494
0,368	-0,2930078	-0,1120136
0,369	-0,3083594	-0,09951659
0,37	-0,2837891	-0,08655225
0,371	-0,218125	-0,07355171
0,372	-0,05742188	-0,06089858
0,373	0,1528516	-0,04895997
0,374	0,2767188	-0,03808769
0,375	0,2358594	-0,02861759
0,376	0,05179687	-0,02088536
0,377	-0,06597656	-0,01508062
0,378	0,02796875	-0,01140032
0,379	0,1517578	-0,009951929
0,38	0,1098047	-0,01077891
0,381	-0,0765625	-0,01386286
0,382	-0,2115625	-0,01912187
0,383	-0,1589063	-0,02639536
0,384	-0,05449219	-0,03548681
0,385	-0,03230469	-0,04609076
0,386	-0,038125	-0,05788701
0,387	-0,06726562	-0,07053536
0,388	-0,1546484	-0,08367699
0,389	-0,213125	-0,09693346
0,39	-0,1814062	-0,1098835
0,391	-0,1274609	-0,1222057
0,392	-0,1133594	-0,1335064
0,393	-0,1116016	-0,1434711
0,394	-0,07445312	-0,151839
0,395	-0,0359375	-0,1584012
0,396	-0,04957031	-0,1630002
0,397	-0,09191406	-0,1655265
0,398	-0,1362109	-0,1659707
0,399	-0,1592187	-0,1643743
0,4	-0,1459375	-0,1608449
0,401	-0,1633594	-0,1555418
0,402	-0,2257422	-0,1486717
0,403	-0,2576953	-0,1404876
0,404	-0,2379297	-0,1313013
0,405	-0,1994922	-0,121421
0,406	-0,1853906	-0,1112364
0,407	-0,1783984	-0,1011056
0,408	-0,1445703	-0,09136047
0,409	-0,1321875	-0,08230431
0,41	-0,1208984	-0,07421057
0,411	-0,0528125	-0,06732277
0,412	0,000859375	-0,06184945
0,413	0,002421875	-0,05796933
0,414	0,01867188	-0,055787
0,415	0,06722656	-0,05533535
0,416	0,07535156	-0,05657548
0,417	0,03535156	-0,05939795
0,418	0,03898438	-0,06359455
0,419	0,05605469	-0,06903645
0,42	0,006523437	-0,07544876
0,421	-0,06179688	-0,08255882
0,422	-0,1140234	-0,09007041
0,423	-0,1670703	-0,097665
0,424	-0,2075	-0,1050045
0,425	-0,2230859	-0,1116928
0,426	-0,2131641	-0,1175368
0,427	-0,1979688	-0,1222052
0,428	-0,1982422	-0,1254619
0,429	-0,1994922	-0,1271215
0,43	-0,1891406	-0,1270492
0,431	-0,1399219	-0,1251624
0,432	-0,08847656	-0,1214078
0,433	-0,09105469	-0,1159056
0,434	-0,08042969	-0,1087236
0,435	-0,05933594	-0,1000116
0,436	-0,078125	-0,08996959
0,437	-0,1039453	-0,07884724
0,438	-0,1114844	-0,06694218
0,439	-0,07738281	-0,05459606
0,44	-0,03230469	-0,04216601
0,441	-0,01882813	-0,02998964
0,442	-0,006992188	-0,01838938
0,443	0,0365625	-0,007671307
0,444	0,0853125	0,001873825
0,445	0,06335937	0,00997332
0,446	0,02382813	0,01637134
0,447	0,05640625	0,02091938
0,448	0,09445312	0,02352239
0,449	0,09191406	0,02414943
0,45	0,04027344	0,02281733
0,451	-0,04316406	0,01958554
0,452	-0,07289063	0,01455737
0,453	-0,06183594	0,007875009
0,454	-0,05039063	-0,000200214
0,455	-0,0275	-0,009373928
0,456	-0,02019531	-0,01933652
0,457	-0,01136719	-0,0297828
0,458	0,01917969	-0,04041847
0,459	0,0234375	-0,0509608
0,46	-0,007226563	-0,06116295
0,461	-0,04546875	-0,07066937
0,462	-0,06011719	-0,07922491
0,463	-0,06539063	-0,08661103
0,464	-0,1224219	-0,09267385
0,465	-0,184375	-0,09732724
0,466	-0,1919531	-0,100553
0,467	-0,1822656	-0,1024488
0,468	-0,1823047	-0,1029527
0,469	-0,1945703	-0,1022313
0,47	-0,1683984	-0,1004491
0,471	-0,09820313	-0,0978125
0,472	-0,08808594	-0,09456796
0,473	-0,1277734	-0,09099929
0,474	-0,09945313	-0,08747488
0,475	-0,02199219	-0,0841576
0,476	0,01152344	-0,08141401
0,477	0,006796875	-0,07952547
0,478	-0,01	-0,07873367
0,479	-0,005039063	-0,07923554
0,48	0,03050781	-0,08117929
0,481	0,02675781	-0,08468281
0,482	-0,01839844	-0,08973059
0,483	-0,08753906	-0,09637056
0,484	-0,1619922	-0,1045583
0,485	-0,1635547	-0,114177
0,486	-0,1129688	-0,125033
0,487	-0,09816406	-0,1368554
0,488	-0,1428516	-0,1492928
0,489	-0,2256641	-0,1620112
0,49	-0,2939844	-0,1746785
0,491	-0,2910156	-0,1869554
0,492	-0,2671094	-0,1984894
0,493	-0,2924219	-0,2089131
0,494	-0,2973438	-0,2178498
0,495	-0,2663281	-0,2249252
0,496	-0,2741797	-0,2298469
0,497	-0,2576172	-0,2324218
0,498	-0,1639844	-0,2325122
0,499	-0,1200391	-0,2300331
0,5	-0,1816016	-0,2249548
0,501	-0,2463672	-0,2173111
0,502	-0,226875	-0,2072349
0,503	-0,1269922	-0,1948717
0,504	-0,04382813	-0,1805465
0,505	-0,03636719	-0,1645966
0,506	-0,0584375	-0,1473902
0,507	-0,06703125	-0,1293293
0,508	-0,06925781	-0,1108554
0,509	-0,1092188	-0,09245853
0,51	-0,1858203	-0,07462473
0,511	-0,2164844	-0,05784911
0,512	-0,1664063	-0,04257092
0,513	-0,09644531	-0,02917585
0,514	-0,04046875	-0,01799432
0,515	0,01222656	-0,00929956
0,516	0,03570313	-0,003227598
0,517	0,004101563	-0,0001399182
0,518	-0,04925781	-1,779183e-005
0,519	-0,065	-0,002834064
0,52	-0,05902344	-0,008474908
0,521	-0,05859375	-0,01673093
0,522	-0,01039063	-0,0272887
0,523	0,08167969	-0,03956288
0,524	0,1579297	-0,05357052
0,525	0,1590625	-0,06865662
0,526	0,04746094	-0,08431824
0,527	-0,098125	-0,1000351
0,528	-0,1778906	-0,115256
0,529	-0,1893359	-0,1293904
0,53	-0,1937109	-0,1416361
0,531	-0,2229687	-0,1519624
0,532	-0,2617578	-0,159738
0,533	-0,2937891	-0,1645871
0,534	-0,3100781	-0,1662064
0,535	-0,3260156	-0,1643546
0,536	-0,3246094	-0,1588518
0,537	-0,27375	-0,1494948
0,538	-0,1849609	-0,1365827
0,539	-0,04441406	-0,1201675
0,54	0,1420703	-0,1004702
0,541	0,2905078	-0,0777867
0,542	0,3138281	-0,05249185
0,543	0,2342969	-0,02504555
0,544	0,1308594	0,003983607
0,545	0,01597656	0,03406153
0,546	-0,04085938	0,06459103
0,547	-0,00640625	0,09500651
0,548	0,006289063	0,1247413
0,549	-0,002265625	0,1532095
0,55	0,01910156	0,179798
0,551	0,02082031	0,2037956
0,552	0,004882813	0,2249233
0,553	0,01070313	0,2427814
0,554	0,04847656	0,2571142
0,555	0,1573828	0,2677083
0,556	0,3264453	0,2743702
0,557	0,4682422	0,2769248
0,558	0,52375	0,2751638
0,559	0,491875	0,2693597
0,56	0,4248828	0,2597495
0,561	0,3686719	0,2466547
0,562	0,3397266	0,2303925
0,563	0,3324609	0,2112613
0,564	0,2986328	0,1895515
0,565	0,2236719	0,1655153
0,566	0,1407031	0,1397551
0,567	0,06882813	0,1128094
0,568	0,0178125	0,08519425
0,569	-0,02859375	0,05734832
0,57	-0,08929687	0,02963365
0,571	-0,1233594	0,002352104
0,572	-0,113125	-0,02431362
0,573	-0,1044531	-0,04984018
0,574	-0,09183594	-0,07401529
0,575	-0,09863281	-0,09663514
0,576	-0,1458203	-0,1175728
0,577	-0,1410156	-0,1367692
0,578	-0,1434766	-0,1542207
0,579	-0,2176953	-0,1701118
0,58	-0,2617969	-0,1841009
0,581	-0,2910547	-0,1964845
0,582	-0,3276562	-0,2074266
0,583	-0,3321484	-0,21709
0,584	-0,3121875	-0,2256294
0,585	-0,2637891	-0,2331933
0,586	-0,1901172	-0,2401175
0,587	-0,1026563	-0,2460324
0,588	-0,006523437	-0,2514011
0,589	0,05851563	-0,2564327
0,59	0,0378125	-0,2612664
0,591	-0,05003906	-0,2659743
0,592	-0,1395313	-0,2705761
0,593	-0,2232422	-0,2752367
0,594	-0,3172656	-0,2794515
0,595	-0,3886328	-0,283514
0,596	-0,3941406	-0,2874725
0,597	-0,3821094	-0,291311
0,598	-0,4305469	-0,2949552
0,599	-0,4745703	-0,2982916
0,6	-0,4503906	-0,3013132
0,601	-0,4492969	-0,3035856
0,602	-0,4912891	-0,3052546
0,603	-0,4616406	-0,306323
0,604	-0,3260938	-0,3067736
0,605	-0,1897656	-0,3065716
0,606	-0,1609766	-0,3056772
0,607	-0,2253516	-0,3041139
0,608	-0,3072266	-0,3017625
0,609	-0,3705469	-0,2987829
0,61	-0,3853125	-0,2952832
0,611	-0,3391406	-0,2913665
0,612	-0,2535938	-0,2871283
0,613	-0,1412891	-0,2826594
0,614	-0,06183594	-0,2780421
0,615	-0,06777344	-0,2734286
0,616	-0,1334766	-0,268959
0,617	-0,2019141	-0,2647642
0,618	-0,2145313	-0,2609502
0,619	-0,2240234	-0,257593
0,62	-0,2670703	-0,2547367
0,621	-0,3376172	-0,2523402
0,622	-0,463125	-0,2505772
0,623	-0,4981641	-0,249403
0,624	-0,4015625	-0,248799
0,625	-0,3466406	-0,248715
0,626	-0,3445313	-0,249065
0,627	-0,2696484	-0,2497258
0,628	-0,1232813	-0,2504608
0,629	-0,06441406	-0,2513526
0,63	-0,1128125	-0,2521845
0,631	-0,1701172	-0,2528165
0,632	-0,2090625	-0,2531059
0,633	-0,2028906	-0,2529044
0,634	-0,1891797	-0,2520584
0,635	-0,2160156	-0,2503343
0,636	-0,2370703	-0,2478524
0,637	-0,2374219	-0,2444537
0,638	-0,2480469	-0,2400863
0,639	-0,2915625	-0,2347235
0,64	-0,3498828	-0,2283629
0,641	-0,3488281	-0,2210266
0,642	-0,2762109	-0,2126977
0,643	-0,2300781	-0,2036612
0,644	-0,2551172	-0,1939599
0,645	-0,2687891	-0,1837212
0,646	-0,2340234	-0,1730892
0,647	-0,2125781	-0,1622248
0,648	-0,1980078	-0,1513049
0,649	-0,1416406	-0,1404594
0,65	-0,08195313	-0,1300559
0,651	-0,05660156	-0,1201926
0,652	-0,04070313	-0,1110153
0,653	-0,006523437	-0,1026565
0,654	0,025625	-0,09523623
0,655	0,02121094	-0,08885904
0,656	-0,001054688	-0,0835325
0,657	-0,03519531	-0,07952885
0,658	-0,07128906	-0,07675993
0,659	-0,06855469	-0,07519304
0,66	-0,04128906	-0,07477504
0,661	-0,00421875	-0,07543031
0,662	0,02617188	-0,07705574
0,663	-0,004882813	-0,0794123
0,664	-0,07652344	-0,08264474
0,665	-0,1347656	-0,08645704
0,666	-0,1936328	-0,09066277
0,667	-0,2578125	-0,09507883
0,668	-0,2927344	-0,09951912
0,669	-0,2888281	-0,1037877
0,67	-0,2658984	-0,1075628
0,671	-0,2311719	-0,1109883
0,672	-0,1835547	-0,1137793
0,673	-0,1376563	-0,1157949
0,674	-0,1066797	-0,1169199
0,675	-0,07753906	-0,117056
0,676	-0,04804688	-0,1161168
0,677	-0,0253125	-0,1139373
0,678	-0,002460938	-0,110749
0,679	0,00328125	-0,1064679
0,68	-0,01566406	-0,1011231
0,681	-0,05011719	-0,09476379
0,682	-0,06644531	-0,08745586
0,683	-0,01734375	-0,07928074
0,684	0,05082031	-0,07028953
0,685	0,05785156	-0,0607441
0,686	0,008710937	-0,05073194
0,687	-0,04214844	-0,04038519
0,688	-0,06957031	-0,02983692
0,689	-0,07453125	-0,01922498
0,69	-0,08023437	-0,008695286
0,691	-0,1079688	0,001615269
0,692	-0,09769531	0,01151024
0,693	-0,02886719	0,02089928
0,694	0,03101563	0,0296874
0,695	0,06460937	0,03778629
0,696	0,06535156	0,0451072
0,697	0,03789063	0,0515584
0,698	0,02796875	0,05706995
0,699	0,04195313	0,06152146
0,7	0,05195313	0,06494282
0,701	0,04691406	0,06734462
0,702	0,04859375	0,06873652
0,703	0,05894531	0,06912463
0,704	0,05570312	0,06851498
0,705	0,04402344	0,06696871
0,706	0,03597656	0,06439889
0,707	0,04410156	0,06096308
0,708	0,060625	0,0567604
0,709	0,06464844	0,05188122
0,71	0,0703125	0,04641192
0,711	0,08535156	0,04044394
0,712	0,0925	0,03414599
0,713	0,083125	0,0274601
0,714	0,04949219	0,02059924
0,715	0,009296875	0,01369801
0,716	0,01167969	0,006880708
0,717	0,03585937	0,0002689258
0,718	0,03910156	-0,006010205
0,719	0,04546875	-0,01177231
0,72	0,04160156	-0,01702783
0,721	0,005195313	-0,02162239
0,722	-0,03007813	-0,02546297
0,723	-0,04367187	-0,02846766
0,724	-0,03980469	-0,03056167
0,725	-0,04097656	-0,03167609
0,726	-0,06160156	-0,03174283
0,727	-0,08960938	-0,0307587
0,728	-0,1118359	-0,02873479
0,729	-0,1333984	-0,02569973
0,73	-0,1542578	-0,02169267
0,731	-0,1455469	-0,01676546
0,732	-0,08746094	-0,01098783
0,733	0,001171875	-0,004479278
0,734	0,05746094	0,00271195
0,735	0,0784375	0,01040944
0,736	0,1337891	0,01846498
0,737	0,18625	0,02672968
0,738	0,1402734	0,03504856
0,739	0,039375	0,04325461
0,74	-0,002929688	0,05113767
0,741	0,01875	0,05860517
0,742	0,06011719	0,0654741
0,743	0,1051563	0,07160748
0,744	0,1273438	0,07688283
0,745	0,1189453	0,08118817
0,746	0,1012891	0,08442069
0,747	0,08234375	0,08648839
0,748	0,05566406	0,08734552
0,749	0,03058594	0,08699442
0,75	0,03160156	0,08545661
0,751	0,04292969	0,08276999
0,752	0,038125	0,07898905
0,753	0,04332031	0,07418874
0,754	0,06410156	0,06849824
0,755	0,07253906	0,06197291
0,756	0,0815625	0,0548153
0,757	0,1010938	0,04719589
0,758	0,1048438	0,03928245
0,759	0,09042969	0,03124381
0,76	0,07925781	0,02325545
0,761	0,07449219	0,01553312
0,762	0,06683594	0,008172559
0,763	0,02300781	0,001376109
0,764	-0,06574219	-0,004710098
0,765	-0,1320703	-0,009963378
0,766	-0,1503906	-0,01428075
0,767	-0,1414063	-0,01757616
0,768	-0,1447656	-0,01978324
0,769	-0,1671875	-0,02085724
0,77	-0,08820313	-0,02080251
0,771	0,07402344	-0,01964356
0,772	0,1716797	-0,01742685
0,773	0,1770313	-0,01422144
0,774	0,088125	-0,01012132
0,775	-0,03148438	-0,00529341
0,776	-0,08179688	0,0002544481
0,777	-0,07328125	0,006316125
0,778	-0,00953125	0,0127344
0,779	0,09035156	0,01935188
0,78	0,1423828	0,02600475
0,781	0,1424219	0,0325171
0,782	0,1286328	0,03863597
0,783	0,1202734	0,04437245
0,784	0,1132422	0,04951387
0,785	0,06644531	0,05393332
0,786	0,008125	0,05752141
0,787	-0,02503906	0,06017929
0,788	-0,07019531	0,06181441
0,789	-0,1140625	0,06230489
0,79	-0,1078125	0,06170887
0,791	-0,04820312	0,05998434
0,792	0,02167969	0,0571436
0,793	0,04574219	0,05321608
0,794	0,07203125	0,04824792
0,795	0,1408594	0,04230383
0,796	0,1230859	0,03548797
0,797	0,009648438	0,02785712
0,798	-0,02386719	0,01955406
0,799	0,03074219	0,01070486
0,8	0,07789063	0,001443242
0,801	0,1113672	-0,008080646
0,802	0,1051953	-0,01769309
0,803	0,0453125	-0,02713632
0,804	-0,008828125	-0,03639756
0,805	-0,03664063	-0,0452711
0,806	-0,05957031	-0,05361806
0,807	-0,08585938	-0,06129864
0,808	-0,1118359	-0,06816008
0,809	-0,1322266	-0,07403109
0,81	-0,1241406	-0,07867173
0,811	-0,09375	-0,08210331
0,812	-0,1054688	-0,08421356
0,813	-0,1380859	-0,08495118
0,814	-0,1416406	-0,08426798
0,815	-0,1341016	-0,08211366
0,816	-0,1025	-0,07843857
0,817	-0,07925781	-0,07319564
0,818	-0,08902344	-0,06642895
0,819	-0,02804687	-0,05822314
0,82	0,06449219	-0,04867385
0,821	0,01070313	-0,03788425
0,822	-0,1014453	-0,02597155
0,823	-0,09386719	-0,0130774
0,824	-0,01902344	0,000581923
0,825	0,05414062	0,01491947
0,826	0,1019141	0,02967881
0,827	0,1032813	0,0446472
0,828	0,1366406	0,05960519
0,829	0,2167578	0,07431341
0,83	0,1768359	0,08850286
0,831	0,01441406	0,1018211
0,832	-0,03210938	0,1141604
0,833	0,07332031	0,1252804
0,834	0,1587109	0,1350055
0,835	0,1480859	0,1431623
0,836	0,1097266	0,149569
0,837	0,1264453	0,1540351
0,838	0,1741797	0,1563439
0,839	0,1823438	0,1564861
0,84	0,1371094	0,1544687
0,841	0,1051172	0,1503376
0,842	0,1184375	0,1441435
0,843	0,1163672	0,1359398
0,844	0,09480469	0,1257915
0,845	0,09355469	0,1137907
0,846	0,09679688	0,1001311
0,847	0,09441406	0,08509923
0,848	0,08492188	0,06897115
0,849	0,06628906	0,05201094
0,85	0,05785156	0,03447451
0,851	0,05125	0,01662079
0,852	0,02445312	-0,001283998
0,853	-0,005742187	-0,01891782
0,854	-0,01242188	-0,03598295
0,855	-0,02398438	-0,05221241
0,856	-0,06863281	-0,06737232
0,857	-0,1106641	-0,08125641
0,858	-0,1191016	-0,09368147
0,859	-0,1069141	-0,1045261
0,86	-0,1008203	-0,113568
0,861	-0,1019531	-0,1208209
0,862	-0,1026563	-0,1262902
0,863	-0,08835938	-0,1300032
0,864	-0,05910156	-0,132005
0,865	-0,08511719	-0,1323619
0,866	-0,1632813	-0,1312219
0,867	-0,1872656	-0,1286084
0,868	-0,1627734	-0,1248504
0,869	-0,1766406	-0,1202066
0,87	-0,2102734	-0,1149079
0,871	-0,1926172	-0,1091528
0,872	-0,1335547	-0,1031136
0,873	-0,1051563	-0,09695864
0,874	-0,1260156	-0,09086985
0,875	-0,10125	-0,08513494
0,876	-0,001210938	-0,07996791
0,877	0,06929688	-0,07551041
0,878	0,05539062	-0,07182461
0,879	-0,02980469	-0,06889779
0,88	-0,1255078	-0,06658357
0,881	-0,1645703	-0,06503953
0,882	-0,1433984	-0,06419098
0,883	-0,08234375	-0,06397823
0,884	-0,04046875	-0,06428095
0,885	-0,05398438	-0,06490945
0,886	-0,06859375	-0,06560638
0,887	-0,06058594	-0,06593259
0,888	-0,06253906	-0,06598648
0,889	-0,05523438	-0,06542879
0,89	-0,02644531	-0,06404819
0,891	-0,01125	-0,06163472
0,892	-0,02222656	-0,05797499
0,893	-0,0315625	-0,05285416
0,894	0,01964844	-0,04595796
0,895	0,07097656	-0,03746227
0,896	0,03234375	-0,02717294
0,897	-0,04972656	-0,0150518
0,898	-0,1178906	-0,001114316
0,899	-0,109375	0,0145655
0,9	-0,02839844	0,03185071
0,901	0,04800781	0,05057117
0,902	0,08265625	0,07039826
0,903	0,08492188	0,09115156
0,904	0,1253125	0,1125801
0,905	0,1882031	0,1343826
0,906	0,1660938	0,1561928
0,907	0,06683594	0,177575
0,908	0,01535156	0,1979982
0,909	0,03832031	0,2171428
0,91	0,09492188	0,2346902
0,911	0,2269531	0,2503619
0,912	0,3863281	0,2638681
0,913	0,4574609	0,2748903
0,914	0,4655859	0,2830837
0,915	0,4637109	0,2880472
0,916	0,3723438	0,289743
0,917	0,2172266	0,2881438
0,918	0,2153125	0,2832925
0,919	0,3445313	0,2752385
0,92	0,3592969	0,2640285
0,921	0,2773828	0,2497185
0,922	0,2699219	0,2323656
0,923	0,2618359	0,2123132
0,924	0,2028906	0,1899372
0,925	0,1870703	0,16563
0,926	0,1516016	0,139766
0,927	0,05324219	0,1127042
0,928	-0,03832031	0,08480494
0,929	-0,1022656	0,05641114
0,93	-0,1305859	0,02806761
0,931	-0,09824219	0,0001943149
0,932	-0,03011719	-0,02680784
0,933	-0,009492188	-0,05258613
0,934	-0,060625	-0,07682663
0,935	-0,1241016	-0,09924428
0,936	-0,1538672	-0,119669
0,937	-0,1562109	-0,1376275
0,938	-0,1475391	-0,1531084
0,939	-0,1364063	-0,1660557
0,94	-0,1503906	-0,1764487
0,941	-0,1839062	-0,1842975
0,942	-0,188125	-0,1896463
0,943	-0,1657812	-0,192742
0,944	-0,1538281	-0,1932979
0,945	-0,1508984	-0,1917847
0,946	-0,1365234	-0,1885007
0,947	-0,1140625	-0,1837261
0,948	-0,1114844	-0,1777264
0,949	-0,1207422	-0,1707686
0,95	-0,06421875	-0,163315
0,951	0,01378906	-0,155177
0,952	-0,06835938	-0,1469415
0,953	-0,2283984	-0,1389503
0,954	-0,2546484	-0,1314807
0,955	-0,2039063	-0,1247536
0,956	-0,1791797	-0,1189509
0,957	-0,1682422	-0,1143544
0,958	-0,1611328	-0,1107484
0,959	-0,1565234	-0,108417
0,96	-0,1426563	-0,1074539
0,961	-0,1286719	-0,1078912
0,962	-0,1346094	-0,1097042
0,963	-0,1625	-0,1128207
0,964	-0,1889453	-0,1171641
0,965	-0,1825391	-0,1224995
0,966	-0,1664844	-0,1287274
0,967	-0,1495703	-0,1356951
0,968	-0,1049219	-0,1432317
0,969	-0,08414062	-0,1511453
0,97	-0,1258203	-0,1592225
0,971	-0,1669922	-0,1672019
0,972	-0,1653516	-0,1749533
0,973	-0,1554297	-0,1822573
0,974	-0,1747656	-0,1889494
0,975	-0,2089453	-0,1948837
0,976	-0,1973047	-0,1999261
0,977	-0,1326172	-0,2039504
0,978	-0,09984375	-0,2067956
0,979	-0,1017578	-0,2085205
0,98	-0,095625	-0,2090664
0,981	-0,1076563	-0,2084426
0,982	-0,08695313	-0,2066762
0,983	-0,05972656	-0,203806
0,984	-0,1688281	-0,1998818
0,985	-0,3166406	-0,194939
0,986	-0,3430078	-0,1891686
0,987	-0,3122266	-0,1826949
0,988	-0,2911328	-0,1756632
0,989	-0,2655078	-0,1682093
0,99	-0,2399219	-0,1604583
0,991	-0,2253906	-0,1525276
0,992	-0,2399609	-0,1445104
0,993	-0,2684766	-0,1366001
0,994	-0,2537891	-0,128915
0,995	-0,2070703	-0,1215674
0,996	-0,1669922	-0,1146427
0,997	-0,1097656	-0,1082024
0,998	-0,04785156	-0,102287
0,999	-0,02097656	-0,09688064
1	-0,02707031	-0,09211897
1,001	-0,02984375	-0,08796555
1,002	0,01238281	-0,08440676
1,003	0,07089844	-0,08141385
1,004	0,08371094	-0,07894355
1,005	0,06589844	-0,07693847
1,006	0,1000391	-0,07525797
1,007	0,1463672	-0,07403266
1,008	0,09753906	-0,07310258
1,009	-0,01839844	-0,07238585
1,01	-0,1166797	-0,07180759
1,011	-0,1322266	-0,07129675
1,012	-0,1564063	-0,070782
1,013	-0,23875	-0,07010172
1,014	-0,2427734	-0,06944632
1,015	-0,2538281	-0,06865616
1,016	-0,3428906	-0,06767818
1,017	-0,3761719	-0,06647477
1,018	-0,3277734	-0,06501846
1,019	-0,1635938	-0,06328607
1,02	0,07839844	-0,0611729
1,021	0,1805078	-0,05890833
1,022	0,1340234	-0,05639708
1,023	0,1032813	-0,05363654
1,024	0,09007812	-0,0506323
1,025	0,01320313	-0,0473945
1,026	-0,1096094	-0,04393413
1,027	-0,1713281	-0,04019933
1,028	-0,1060938	-0,03638654
1,029	0,01667969	-0,0324448
1,03	0,05886719	-0,0283854
1,031	0,0378125	-0,02422103
1,032	0,04066406	-0,01996595
1,033	-0,00265625	-0,01563573
1,034	-0,09714844	-0,01120354
1,035	-0,1187109	-0,006816296
1,036	-0,02308594	-0,002438906
1,037	0,1175781	0,00191883
1,038	0,1869922	0,006243793
1,039	0,1614844	0,0105177
1,04	0,1057813	0,01471636
1,041	0,05585938	0,0188523
1,042	0,03019531	0,02277125
1,043	0,03480469	0,02650113
1,044	0,02613281	0,03002292
1,045	-0,02414062	0,03331316
1,046	-0,09613281	0,03634447
1,047	-0,1791016	0,03908747
1,048	-0,2121484	0,04157174
1,049	-0,1158203	0,04360234
1,05	0,02234375	0,04523264
1,051	0,0896875	0,04645697
1,052	0,08863281	0,04727202
1,053	0,06027344	0,0476816
1,054	0,05199219	0,04770198
1,055	0,03734375	0,04744178
1,056	-0,01046875	0,04671895
1,057	-0,03859375	0,04566247
1,058	0,0021875	0,04432864
1,059	0,09589844	0,04278036
1,06	0,1642188	0,04109337
1,061	0,1837891	0,03936187
1,062	0,190625	0,03777315
1,063	0,1889063	0,03622662
1,064	0,1742188	0,03490144
1,065	0,1267969	0,0338992
1,066	0,04320313	0,03331698
1,067	-0,01796875	0,03325014
1,068	0,004296875	0,03379405
1,069	0,1044141	0,03508024
1,07	0,150625	0,03707423
1,071	0,1104297	0,03987178
1,072	0,0990625	0,04351196
1,073	0,06550781	0,04801084
1,074	-0,0553125	0,05335762
1,075	-0,2044531	0,05951157
1,076	-0,3114453	0,06638475
1,077	-0,2992969	0,07393771
1,078	-0,1585156	0,08207448
1,079	0,05898437	0,09069513
1,08	0,2433594	0,09967294
1,081	0,29375	0,108845
1,082	0,2331641	0,1180077
1,083	0,1544141	0,1268645
1,084	0,1532813	0,1353657
1,085	0,1775	0,1433016
1,086	0,1696875	0,150516
1,087	0,2196094	0,1568429
1,088	0,3092187	0,1620959
1,089	0,3508203	0,1660683
1,09	0,2627734	0,1684808
1,091	0,1060547	0,16937
1,092	0,04996094	0,1686333
1,093	0,00234375	0,1662408
1,094	-0,01636719	0,1621697
1,095	0,2206641	0,1563989
1,096	0,5334766	0,1489141
1,097	0,5450781	0,1396799
1,098	0,2508594	0,1289016
1,099	-0,06554688	0,1167082
1,1	-0,1794922	0,103272
1,101	-0,1170703	0,0887686
1,102	-0,02859375	0,07337888
1,103	0,05425781	0,05729744
1,104	0,1097656	0,04071561
1,105	0,08835938	0,02395754
1,106	0,075625	0,007252272
1,107	0,05082031	-0,009164553
1,108	-0,1372656	-0,02507099
1,109	-0,2924609	-0,04025211
1,11	-0,185625	-0,05449486
1,111	-0,06960938	-0,06762919
1,112	-0,1161328	-0,07935747
1,113	-0,1471094	-0,08961807
1,114	-0,1136719	-0,09833166
1,115	-0,08890625	-0,1054363
1,116	-0,0728125	-0,1108831
1,117	-0,06207031	-0,1146385
1,118	-0,05609375	-0,1167703
1,119	-0,04910156	-0,1171069
1,12	-0,03363281	-0,1158769
1,121	-0,003359375	-0,1132309
1,122	0,03039063	-0,1093161
1,123	0,0603125	-0,1042786
1,124	0,03761719	-0,09827348
1,125	-0,1037109	-0,09157335
1,126	-0,2566406	-0,08410952
1,127	-0,23	-0,0762514
1,128	-0,1001172	-0,0682385
1,129	-0,03910156	-0,06028049
1,13	-0,02628906	-0,05256393
1,131	-0,03207031	-0,04526335
1,132	-0,05269531	-0,03862491
1,133	-0,0640625	-0,03259622
1,134	-0,07183594	-0,0274153
1,135	-0,09203125	-0,02320505
1,136	-0,1066797	-0,02005188
1,137	-0,04277344	-0,01801089
1,138	0,03050781	-0,0171114
1,139	-0,004726562	-0,01738053
1,14	-0,05132813	-0,01873452
1,141	-0,04382813	-0,02114179
1,142	-0,02699219	-0,024532
1,143	-0,01929688	-0,02881775
1,144	-0,04449219	-0,03389382
1,145	-0,0821875	-0,0396353
1,146	-0,09859375	-0,04587097
1,147	-0,1044922	-0,05251169
1,148	-0,08332031	-0,05936003
1,149	-0,01300781	-0,06625606
1,15	0,01695312	-0,07304964
1,151	-0,04	-0,07959545
1,152	-0,09730469	-0,08574798
1,153	-0,1320312	-0,09132869
1,154	-0,1028516	-0,0962962
1,155	-0,01355469	-0,1005112
1,156	0,04160156	-0,1038903
1,157	0,08730469	-0,1063712
1,158	0,0621875	-0,1079095
1,159	-0,07316406	-0,1084762
1,16	-0,144375	-0,108057
1,161	-0,1189063	-0,1066739
1,162	-0,1100391	-0,1043779
1,163	-0,1438281	-0,1012331
1,164	-0,1672656	-0,0973155
1,165	-0,1689063	-0,09271413
1,166	-0,2103906	-0,08753371
1,167	-0,2570703	-0,08193014
1,168	-0,2075391	-0,07594412
1,169	-0,1219141	-0,06975432
1,17	-0,1016016	-0,06349707
1,171	-0,1138281	-0,05730283
1,172	-0,09601563	-0,05130178
1,173	-0,04984375	-0,04562871
1,174	-0,01453125	-0,04046827
1,175	0,001523438	-0,03581281
1,176	-0,0315625	-0,03179856
1,177	-0,08644531	-0,02849979
1,178	-0,05191406	-0,02597787
1,179	0,06242188	-0,02428726
1,18	0,1580078	-0,02347813
1,181	0,1642188	-0,02362301
1,182	0,1336719	-0,02464423
1,183	0,1228125	-0,02653195
1,184	0,09214844	-0,02924109
1,185	0,05558594	-0,03272253
1,186	-0,009023438	-0,03692522
1,187	-0,1216406	-0,0417944
1,188	-0,1897266	-0,04727149
1,189	-0,1914844	-0,05325524
1,19	-0,1920313	-0,05963542
1,191	-0,1979297	-0,06630766
1,192	-0,1863281	-0,07317549
1,193	-0,128125	-0,08014704
1,194	-0,04097656	-0,08713023
1,195	-0,03140625	-0,09402103
1,196	-0,06945313	-0,1007469
1,197	-0,04953125	-0,1072145
1,198	-0,06019531	-0,113352
1,199	-0,1560156	-0,1190964
1,2	-0,2020703	-0,1243874
1,201	-0,1883984	-0,129164
1,202	-0,204375	-0,1333671
1,203	-0,2038672	-0,1369413
1,204	-0,1620313	-0,1398811
1,205	-0,1359375	-0,1421801
1,206	-0,12375	-0,1438325
1,207	-0,09226563	-0,1448305
1,208	-0,05101563	-0,1451656
1,209	-0,04875	-0,1448654
1,21	-0,08574219	-0,1438483
1,211	-0,09101563	-0,1421974
1,212	-0,05480469	-0,1399563
1,213	-0,04832031	-0,1371654
1,214	-0,1009375	-0,1338655
1,215	-0,1754297	-0,1301056
1,216	-0,2434766	-0,1260023
1,217	-0,2744141	-0,1214753
1,218	-0,2514063	-0,116672
1,219	-0,2132422	-0,111679
1,22	-0,1457031	-0,1065813
1,221	-0,03167969	-0,1014687
1,222	0,09851562	-0,09644436
1,223	0,1663281	-0,09166208
1,224	0,07054687	-0,08714983
1,225	-0,07453125	-0,08305971
1,226	-0,14	-0,07950205
1,227	-0,1742969	-0,07657732
1,228	-0,1919141	-0,07437694
1,229	-0,1689063	-0,0729841
1,23	-0,12	-0,07243484
1,231	-0,1095313	-0,07291138
1,232	-0,1345312	-0,07443233
1,233	-0,1392969	-0,07703464
1,234	-0,1371094	-0,08072497
1,235	-0,1280469	-0,08546767
1,236	-0,1084375	-0,09117617
1,237	-0,1000391	-0,09758646
1,238	-0,08128906	-0,1049228
1,239	-0,04929688	-0,1129403
1,24	-0,06945313	-0,1214939
1,241	-0,1298828	-0,1304008
1,242	-0,1246484	-0,1394218
1,243	-0,05355469	-0,14825
1,244	-0,03460937	-0,1563591
1,245	-0,08332031	-0,1638715
1,246	-0,1225391	-0,1703775
1,247	-0,1580469	-0,1756222
1,248	-0,1910938	-0,179345
1,249	-0,1796875	-0,1812674
1,25	-0,1546484	-0,1810925
1,251	-0,1822656	-0,1784249
1,252	-0,2223438	-0,1733161
1,253	-0,2124219	-0,165563
1,254	-0,2016016	-0,1550913
1,255	-0,1963281	-0,1418707
1,256	-0,1507422	-0,1259227
1,257	-0,1029688	-0,1073331
1,258	-0,1157031	-0,08629356
1,259	-0,15625	-0,06295769
1,26	-0,1267969	-0,03762518
1,261	-0,01417969	-0,01060839
1,262	0,07992188	0,01772178
1,263	0,076875	0,04691178
1,264	0,06574219	0,07640931
1,265	0,1521484	0,1054521
1,266	0,2519531	0,1337569
1,267	0,2560156	0,1607293
1,268	0,150625	0,1858883
1,269	0,03683594	0,2087364
1,27	0,06964844	0,2287337
1,271	0,1645312	0,2452945
1,272	0,2173828	0,2577117
1,273	0,3411719	0,2658457
1,274	0,4721875	0,2694363
1,275	0,4503125	0,2683616
1,276	0,3332422	0,2625279
1,277	0,2583203	0,25186
1,278	0,2453516	0,2363169
1,279	0,2309766	0,2159044
1,28	0,2022266	0,1909318
1,281	0,1596094	0,161859
1,282	0,08355469	0,1291798
1,283	-0,02605469	0,09340204
1,284	-0,0840625	0,05505641
1,285	-0,03640625	0,01472142
1,286	-0,003984375	-0,02693344
1,287	-0,05945313	-0,0692203
1,288	-0,1384766	-0,111349
1,289	-0,2077344	-0,1526073
1,29	-0,2214453	-0,1923304
1,291	-0,1414063	-0,229883
1,292	-0,06332031	-0,264644
1,293	-0,07957031	-0,2960415
1,294	-0,1710938	-0,3234628
1,295	-0,2884766	-0,3466278
1,296	-0,4735547	-0,3653046
1,297	-0,7207031	-0,3793303
1,298	-0,8440625	-0,388599
1,299	-0,7216406	-0,3930681
1,3	-0,4102344	-0,3929136
1,301	-0,1126563	-0,3879644
1,302	-0,06125	-0,3788308
1,303	-0,2203906	-0,3659963
1,304	-0,3396094	-0,3499448
1,305	-0,3479687	-0,3311621
1,306	-0,2941797	-0,3101575
1,307	-0,1952344	-0,2876624
1,308	-0,1308984	-0,2638396
1,309	-0,1251953	-0,239651
1,31	-0,1682422	-0,2157868
1,311	-0,2402344	-0,1928392
1,312	-0,2416016	-0,1713121
1,313	-0,2089063	-0,1516436
1,314	-0,2397266	-0,1343155
1,315	-0,2743359	-0,1194224
1,316	-0,263125	-0,1073896
1,317	-0,1961719	-0,0984269
1,318	-0,08636719	-0,09262762
1,319	-0,03167969	-0,08997539
1,32	-0,03882812	-0,09035342
1,321	-0,03691406	-0,09350965
1,322	-0,02453125	-0,09928901
1,323	-0,03265625	-0,107305
1,324	-0,09308594	-0,1171804
1,325	-0,1498047	-0,1285085
1,326	-0,1355469	-0,1408509
1,327	-0,1375391	-0,1537332
1,328	-0,1925	-0,1665263
1,329	-0,2109766	-0,1790676
1,33	-0,2094922	-0,1907351
1,331	-0,2338672	-0,2010993
1,332	-0,2133594	-0,2098009
1,333	-0,1498438	-0,2165435
1,334	-0,1753516	-0,2210845
1,335	-0,2795313	-0,2231417
1,336	-0,2810156	-0,2228615
1,337	-0,1794531	-0,2200921
1,338	-0,1414844	-0,2148573
1,339	-0,1552734	-0,2072604
1,34	-0,1091406	-0,1974793
1,341	-0,06507813	-0,1857633
1,342	-0,1551172	-0,1724108
1,343	-0,2844141	-0,1578405
1,344	-0,2722266	-0,1424147
1,345	-0,1977734	-0,1265175
1,346	-0,2041406	-0,1105353
1,347	-0,2300781	-0,09485997
1,348	-0,1826172	-0,07989001
1,349	-0,09816406	-0,06603548
1,35	-0,03734375	-0,05363701
1,351	0,00078125	-0,04300329
1,352	0,02351563	-0,03436955
1,353	0,04769531	-0,02791006
1,354	0,07914063	-0,02374256
1,355	0,08101563	-0,0219293
1,356	0,07636719	-0,02243993
1,357	0,08664062	-0,02530255
1,358	0,009921875	-0,03033376
1,359	-0,1444922	-0,03733997
1,36	-0,1890625	-0,04608625
1,361	-0,1018359	-0,05629447
1,362	-0,02699219	-0,06763916
1,363	3,90625e-005	-0,07965764
1,364	0,00609375	-0,09221387
1,365	-0,01933594	-0,1048195
1,366	-0,04984375	-0,1171038
1,367	-0,1283594	-0,1287209
1,368	-0,3015234	-0,1393415
1,369	-0,4091406	-0,1486456
1,37	-0,335625	-0,1562294
1,371	-0,1968359	-0,1621187
1,372	-0,1696094	-0,1660432
1,373	-0,2617969	-0,1678873
1,374	-0,301875	-0,1675881
1,375	-0,1746875	-0,1651267
1,376	0,01785156	-0,1605244
1,377	0,1122266	-0,1537921
1,378	0,121875	-0,1452326
1,379	0,04636719	-0,1350102
1,38	-0,1369531	-0,1233609
1,381	-0,2763281	-0,1105332
1,382	-0,2697266	-0,09678631
1,383	-0,1592578	-0,08239224
1,384	-0,02976563	-0,06761522
1,385	0,01648437	-0,05284235
1,386	-0,03394531	-0,03837154
1,387	-0,06902344	-0,02448356
1,388	-0,05296875	-0,01141925
1,389	-0,05679688	0,0006174275
1,39	-0,0665625	0,01145495
1,391	-0,02355469	0,02099333
1,392	0,06691406	0,02900138
1,393	0,1542969	0,03546027
1,394	0,1746484	0,04035616
1,395	0,1255469	0,04371675
1,396	0,0884375	0,04560902
1,397	0,1015234	0,04613889
1,398	0,1067578	0,0455327
1,399	0,05941406	0,04373521
1,4	-0,015	0,0410556
1,401	-0,08226562	0,03771834
1,402	-0,1045703	0,03394161
1,403	-0,08085937	0,02993921
1,404	-0,07796875	0,02592567
1,405	-0,09007812	0,02221177
1,406	-0,0528125	0,01874592
1,407	0,003867188	0,01584788
1,408	0,02667969	0,01369738
1,409	0,04957031	0,01242729
1,41	0,07882812	0,01212715
1,411	0,09261719	0,01284939
1,412	0,1005078	0,01467236
1,413	0,08625	0,01742403
1,414	0,07144531	0,02115549
1,415	0,084375	0,02581963
1,416	0,09167969	0,03133034
1,417	0,08605469	0,03756297
1,418	0,09203125	0,04435758
1,419	0,09859375	0,05153436
1,42	0,09253906	0,05887271
1,421	0,1055078	0,06621416
1,422	0,1276172	0,0733914
1,423	0,1069922	0,0802367
1,424	0,04535156	0,08657862
1,425	-0,04730469	0,09224243
1,426	-0,1500781	0,09704188
1,427	-0,2093359	0,1008812
1,428	-0,1933984	0,103667
1,429	-0,06089844	0,1053441
1,43	0,1666406	0,1058784
1,431	0,3455469	0,1052532
1,432	0,3822656	0,1034694
1,433	0,3107031	0,1005392
1,434	0,2187109	0,09656876
1,435	0,169375	0,09167144
1,436	0,1364063	0,08597951
1,437	0,05484375	0,0796293
1,438	-0,03523437	0,07275934
1,439	-0,03457031	0,06551246
1,44	0,03042969	0,05802701
1,441	0,06652344	0,05051182
1,442	0,05792969	0,04314209
1,443	0,01796875	0,03608078
1,444	-0,03980469	0,0294652
1,445	-0,056875	0,02340649
1,446	-0,01253906	0,01799134
1,447	0,03820312	0,01325273
1,448	0,07039062	0,009334332
1,449	0,09582031	0,006239573
1,45	0,1029297	0,003973401
1,451	0,05386719	0,002512527
1,452	-0,01011719	0,00180491
1,453	-0,01808594	0,001769407
1,454	-0,03292969	0,002248666
1,455	-0,05632813	0,003255495
1,456	-0,004765625	0,004596485
1,457	0,02761719	0,006126667
1,458	-0,04882813	0,007704903
1,459	-0,08175781	0,009194165
1,46	0,01105469	0,01046028
1,461	0,04789062	0,0113382
1,462	-0,04085938	0,01179471
1,463	-0,08847656	0,01166092
1,464	-0,04746094	0,0108344
1,465	0,004375	0,009249954
1,466	0,07117187	0,006882844
1,467	0,09679688	0,003748747
1,468	0,06167969	-8,988823e-005
1,469	0,07265625	-0,004598587
1,47	0,0703125	-0,009721636
1,471	0,01	-0,01538022
1,472	3,90625e-005	-0,02145966
1,473	0,01613281	-0,02780334
1,474	0,005195313	-0,034212
1,475	0,00515625	-0,04040904
1,476	-0,01472656	-0,04629879
1,477	-0,07703125	-0,05167524
1,478	-0,1202734	-0,05637351
1,479	-0,1335156	-0,06022694
1,48	-0,1603516	-0,06306227
1,481	-0,2169922	-0,06470119
1,482	-0,2579688	-0,06493933
1,483	-0,2476172	-0,06374364
1,484	-0,1680859	-0,06103426
1,485	-0,01621094	-0,0567869
1,486	0,07914063	-0,05100443
1,487	0,07308594	-0,04371842
1,488	0,08742187	-0,03499437
1,489	0,1270313	-0,02495367
1,49	0,1298438	-0,01370258
1,491	0,1062109	-0,001436158
1,492	0,09828125	0,01164988
1,493	0,1002344	0,0253381
1,494	0,06363281	0,03938052
1,495	0,01476563	0,05349213
1,496	-0,01230469	0,06729897
1,497	-0,01835938	0,08065331
1,498	0,01847656	0,09325993
1,499	0,06433594	0,1048897
1,5	0,08503906	0,1153181
1,501	0,08789063	0,1243132
1,502	0,04429687	0,1316333
1,503	0,0078125	0,1369844
1,504	0,08203125	0,1403618
1,505	0,1801953	0,1416806
1,506	0,1784375	0,1409287
1,507	0,1023438	0,1381077
1,508	0,04855469	0,1332253
1,509	0,08847656	0,1262999
1,51	0,1359766	0,1173516
1,511	0,1292578	0,1065786
1,512	0,1629297	0,0941963
1,513	0,2407031	0,08043608
1,514	0,2522266	0,06552304
1,515	0,1834375	0,04967775
1,516	0,1241406	0,03312541
1,517	0,09671875	0,01610863
1,518	0,04453125	-0,001104617
1,519	-0,06222656	-0,01822557
1,52	-0,1863281	-0,03500125
1,521	-0,2733203	-0,05120504
1,522	-0,2532422	-0,06662745
1,523	-0,1300391	-0,08106741
1,524	-0,06617188	-0,09433594
1,525	-0,09667969	-0,1062547
1,526	-0,1145703	-0,1167449
1,527	-0,1073047	-0,1257473
1,528	-0,09691406	-0,1332185
1,529	-0,09234375	-0,1391226
1,53	-0,09726563	-0,1434288
1,531	-0,09476563	-0,1461599
1,532	-0,06441406	-0,1472371
1,533	-0,03765625	-0,1468459
1,534	-0,05078125	-0,1451194
1,535	-0,09261719	-0,1421766
1,536	-0,1801562	-0,1381209
1,537	-0,30625	-0,1330486
1,538	-0,4372266	-0,1271369
1,539	-0,4873828	-0,1203077
1,54	-0,3708594	-0,1128474
1,541	-0,2041016	-0,1049316
1,542	-0,04257813	-0,09670671
1,543	0,1378906	-0,08829814
1,544	0,2029297	-0,07982372
1,545	0,1520703	-0,07148949
1,546	0,1042578	-0,06318095
1,547	0,09886719	-0,0551195
1,548	0,1070703	-0,04741796
1,549	0,04175781	-0,04017323
1,55	-0,01519531	-0,03347773
1,551	-0,002070313	-0,02742958
1,552	-0,0690625	-0,02219776
1,553	-0,1501562	-0,01768729
1,554	-0,09324219	-0,01399979
1,555	-0,02203125	-0,0111739
1,556	-0,04078125	-0,009252021
1,557	-0,08382813	-0,008286979
1,558	-0,05195313	-0,008342388
1,559	0,01664062	-0,009514903
1,56	-0,05890625	-0,01173937
1,561	-0,2039453	-0,01499551
1,562	-0,2139453	-0,01924253
1,563	-0,1562891	-0,02444859
1,564	-0,1064063	-0,03059069
1,565	-0,04445313	-0,0376472
1,566	-0,02757813	-0,04560061
1,567	-0,02851562	-0,05432373
1,568	0,008398437	-0,06369189
1,569	0,01199219	-0,07357458
1,57	-0,02601563	-0,08384874
1,571	-0,02148438	-0,09439625
1,572	0,00546875	-0,105097
1,573	0,0001953125	-0,1158482
1,574	0,008789063	-0,1264216
1,575	-0,007421875	-0,136691
1,576	-0,09925781	-0,1465167
1,577	-0,1961328	-0,1557703
1,578	-0,2733984	-0,1643334
1,579	-0,2694922	-0,1720976
1,58	-0,1532813	-0,1790074
1,581	-0,07878906	-0,1848789
1,582	-0,1506641	-0,189745
1,583	-0,2575781	-0,1936096
1,584	-0,2426563	-0,1964828
1,585	-0,17375	-0,1983789
1,586	-0,1680469	-0,199321
1,587	-0,1669141	-0,1993661
1,588	-0,175	-0,1985687
1,589	-0,2473438	-0,1971323
1,59	-0,3370313	-0,1952287
1,591	-0,3842188	-0,1930035
1,592	-0,3314063	-0,190567
1,593	-0,2460547	-0,1879971
1,594	-0,2733203	-0,1852892
1,595	-0,2960547	-0,18273
1,596	-0,1919141	-0,180449
1,597	-0,1239844	-0,1785839
1,598	-0,1555078	-0,1772065
1,599	-0,1892187	-0,176307
1,6	-0,1739063	-0,1757915
1,601	-0,1072266	-0,1753429
1,602	-0,04261719	-0,1752837
1,603	-0,001992188	-0,1754234
1,604	0,0125	-0,1756705
1,605	-0,01652344	-0,1758718
1,606	-0,06175781	-0,1757962
1,607	-0,09328125	-0,1751335
1,608	-0,13375	-0,1733192
1,609	-0,1978516	-0,1706085
1,61	-0,2223828	-0,1666076
1,611	-0,1811328	-0,1611115
1,612	-0,1423437	-0,1539133
1,613	-0,1586328	-0,1447986
1,614	-0,2446484	-0,1335496
1,615	-0,3290625	-0,1198172
1,616	-0,2899609	-0,1039176
1,617	-0,158125	-0,08567689
1,618	-0,05964844	-0,06511479
1,619	-0,03355469	-0,04230897
1,62	-0,04488281	-0,01740453
1,621	-0,05066406	0,009376558
1,622	-0,01960938	0,03777899
1,623	0,04371094	0,06731036
1,624	0,1160156	0,09771036
1,625	0,1760156	0,128627
1,626	0,1982422	0,1596493
1,627	0,2220703	0,1902869
1,628	0,2989453	0,2199641
1,629	0,3688281	0,2480085
1,63	0,3362891	0,2739488
1,631	0,2269531	0,2974226
1,632	0,1939453	0,3180964
1,633	0,2736719	0,3356198
1,634	0,3730469	0,349604
1,635	0,4735547	0,3596279
1,636	0,5228125	0,3652225
1,637	0,4995313	0,3663317
1,638	0,4655859	0,3630181
1,639	0,4043359	0,3554057
1,64	0,3248828	0,3436153
1,641	0,2526172	0,327752
1,642	0,2087891	0,3079226
1,643	0,2294141	0,2842229
1,644	0,2235938	0,2571609
1,645	0,1307031	0,2272819
1,646	0,07921875	0,1951427
1,647	0,1131641	0,1612558
1,648	0,1275391	0,1260887
1,649	0,114375	0,0900846
1,65	0,1035938	0,05360325
1,651	0,02921875	0,0174243
1,652	-0,0821875	-0,01796795
1,653	-0,103125	-0,05209111
1,654	-0,08457031	-0,08454338
1,655	-0,1127344	-0,1149962
1,656	-0,1263672	-0,1431823
1,657	-0,1102344	-0,1690524
1,658	-0,1102734	-0,1919623
1,659	-0,1439844	-0,2120325
1,66	-0,1982031	-0,2292756
1,661	-0,2430469	-0,2437483
1,662	-0,2575391	-0,2555449
1,663	-0,251875	-0,2648005
1,664	-0,2823047	-0,271933
1,665	-0,3501172	-0,2765321
1,666	-0,3839063	-0,2792567
1,667	-0,3682031	-0,2804947
1,668	-0,3282422	-0,2805879
1,669	-0,2767578	-0,2798326
1,67	-0,2186719	-0,2784954
1,671	-0,1327734	-0,2770653
1,672	-0,08226562	-0,2751641
1,673	-0,1749219	-0,2734316
1,674	-0,3005469	-0,2721745
1,675	-0,3141797	-0,2715982
1,676	-0,2875781	-0,2718134
1,677	-0,3028906	-0,2728555
1,678	-0,3340234	-0,2748673
1,679	-0,3339063	-0,2773797
1,68	-0,2973828	-0,2806174
1,681	-0,2547656	-0,2845713
1,682	-0,2658203	-0,2891609
1,683	-0,3555078	-0,2942389
1,684	-0,4421484	-0,2996065
1,685	-0,475	-0,3051006
1,686	-0,4203906	-0,310323
1,687	-0,2813281	-0,3152122
1,688	-0,1694141	-0,3196346
1,689	-0,15125	-0,3234528
1,69	-0,2306641	-0,3265242
1,691	-0,35	-0,3287088
1,692	-0,3958203	-0,3298911
1,693	-0,3127344	-0,3299673
1,694	-0,2109766	-0,3289432
1,695	-0,2203516	-0,326841
1,696	-0,2950391	-0,3237064
1,697	-0,3353516	-0,3196053
1,698	-0,3094922	-0,3146253
1,699	-0,2776172	-0,3088727
1,7	-0,3189453	-0,3025124
1,701	-0,4066406	-0,2957124
1,702	-0,4274609	-0,2886469
1,703	-0,355	-0,2814879
1,704	-0,2852344	-0,274404
1,705	-0,2871875	-0,2675602
1,706	-0,3422266	-0,2611057
1,707	-0,3791406	-0,2552231
1,708	-0,3545313	-0,2500291
1,709	-0,2556641	-0,2456219
1,71	-0,1377344	-0,2420707
1,711	-0,1163672	-0,2394179
1,712	-0,1535938	-0,2376789
1,713	-0,1448047	-0,2368176
1,714	-0,1155469	-0,2368618
1,715	-0,09625	-0,2377128
1,716	-0,07796875	-0,2392784
1,717	-0,0559375	-0,2414515
1,718	-0,09613281	-0,2441115
1,719	-0,2697266	-0,2471243
1,72	-0,4395312	-0,2503066
1,721	-0,4935156	-0,2536059
1,722	-0,4732031	-0,2568249
1,723	-0,4301563	-0,2598202
1,724	-0,4291406	-0,262467
1,725	-0,4315234	-0,2646586
1,726	-0,3591797	-0,2663046
1,727	-0,2292578	-0,2672988
1,728	-0,1291406	-0,2676774
1,729	-0,1204297	-0,2673687
1,73	-0,14875	-0,2663617
1,731	-0,1987891	-0,2646723
1,732	-0,2877344	-0,2623417
1,733	-0,3342578	-0,2594338
1,734	-0,2878125	-0,2560147
1,735	-0,2150781	-0,2522432
1,736	-0,1819531	-0,2482085
1,737	-0,1624219	-0,244023
1,738	-0,1370703	-0,2398004
1,739	-0,1382422	-0,2356544
1,74	-0,1686328	-0,2316973
1,741	-0,2114844	-0,2280161
1,742	-0,2400391	-0,2247802
1,743	-0,2412109	-0,2220605
1,744	-0,25125	-0,2199276
1,745	-0,2845313	-0,2184278
1,746	-0,3064453	-0,2175815
1,747	-0,2672656	-0,2173812
1,748	-0,2188281	-0,2177472
1,749	-0,2377734	-0,2187699
1,75	-0,2200781	-0,2203541
1,751	-0,1593359	-0,2224315
1,752	-0,2414063	-0,2249131
1,753	-0,3926172	-0,2276846
1,754	-0,3854297	-0,2306046
1,755	-0,2937891	-0,2334374
1,756	-0,2351953	-0,2362347
1,757	-0,1750781	-0,2387975
1,758	-0,1600781	-0,2410021
1,759	-0,1806641	-0,2427271
1,76	-0,1692578	-0,2438485
1,761	-0,1792969	-0,2442375
1,762	-0,2047266	-0,2436948
1,763	-0,1969922	-0,2423326
1,764	-0,2071094	-0,2400325
1,765	-0,2591797	-0,2367647
1,766	-0,3205078	-0,2325171
1,767	-0,3467969	-0,2272922
1,768	-0,3016016	-0,221108
1,769	-0,2082813	-0,2139552
1,77	-0,1171875	-0,2060404
1,771	-0,07636719	-0,1974143
1,772	-0,07964844	-0,1881827
1,773	-0,07359375	-0,1784626
1,774	-0,06300781	-0,1683842
1,775	-0,073125	-0,1580933
1,776	-0,1158203	-0,147727
1,777	-0,1999219	-0,1375253
1,778	-0,3399219	-0,1276058
1,779	-0,4677734	-0,1181034
1,78	-0,4184766	-0,1091482
1,781	-0,205	-0,1008706
1,782	0,02011719	-0,09340199
1,783	0,1356641	-0,08684258
1,784	0,08269531	-0,0813712
1,785	-0,01742188	-0,07699277
1,786	-0,05890625	-0,07372869
1,787	-0,09644531	-0,0715915
1,788	-0,1053125	-0,07058674
1,789	-0,06710937	-0,0707094
1,79	-0,0678125	-0,07189162
1,791	-0,07582031	-0,07419628
1,792	-0,06332031	-0,07744741
1,793	-0,09308594	-0,0815175
1,794	-0,1213281	-0,08628333
1,795	-0,08921875	-0,09162405
1,796	-0,0203125	-0,09741418
1,797	0,03917969	-0,1034711
1,798	0,01671875	-0,1097636
1,799	-0,1088281	-0,1160566
1,8	-0,2357031	-0,1221841
1,801	-0,2449219	-0,1280027
1,802	-0,1796875	-0,1333899
1,803	-0,1591016	-0,138238
1,804	-0,1703125	-0,142435
1,805	-0,1652734	-0,1459344
1,806	-0,1174609	-0,1486415
1,807	-0,06636719	-0,1505051
1,808	-0,1188672	-0,1515014
1,809	-0,2020703	-0,1516351
1,81	-0,2238281	-0,150938
1,811	-0,2261328	-0,1494949
1,812	-0,174375	-0,1473066
1,813	-0,0803125	-0,1444935
1,814	-0,07871094	-0,1411597
1,815	-0,1599609	-0,1374195
1,816	-0,1833984	-0,1334004
1,817	-0,1228516	-0,1292456
1,818	-0,06816406	-0,1251602
1,819	-0,07914063	-0,1211692
1,82	-0,12125	-0,1174698
1,821	-0,1440625	-0,1141967
1,822	-0,1512891	-0,1114691
1,823	-0,1442969	-0,1093935
1,824	-0,1254297	-0,1080654
1,825	-0,1059766	-0,1076015
1,826	-0,08042969	-0,1079632
1,827	-0,06464844	-0,109213
1,828	-0,0540625	-0,111356
1,829	-0,02691406	-0,1143741
1,83	-0,01355469	-0,1182258
1,831	-0,03855469	-0,1228461
1,832	-0,1133203	-0,1281535
1,833	-0,2125391	-0,1340107
1,834	-0,2310156	-0,1402984
1,835	-0,1619922	-0,1468842
1,836	-0,1486719	-0,1536309
1,837	-0,243125	-0,1603945
1,838	-0,3412109	-0,1670233
1,839	-0,3637891	-0,173357
1,84	-0,3078125	-0,1792488
1,841	-0,1798828	-0,1845706
1,842	-0,03429687	-0,1892141
1,843	-0,0146875	-0,1930886
1,844	-0,1464844	-0,1961188
1,845	-0,2355859	-0,198245
1,846	-0,2177344	-0,1994355
1,847	-0,1910938	-0,1996556
1,848	-0,1477734	-0,1989499
1,849	-0,08585938	-0,1973708
1,85	-0,07449219	-0,1949851
1,851	-0,1199219	-0,1918736
1,852	-0,1753125	-0,1881328
1,853	-0,2130078	-0,1838982
1,854	-0,2337891	-0,1792482
1,855	-0,2426172	-0,1743646
1,856	-0,2184375	-0,1693981
1,857	-0,1523828	-0,1644882
1,858	-0,1274219	-0,1597638
1,859	-0,1742188	-0,1553453
1,86	-0,2067578	-0,1513589
1,861	-0,1932813	-0,1478757
1,862	-0,1405859	-0,1450052
1,863	-0,1345312	-0,142816
1,864	-0,2109375	-0,1413488
1,865	-0,234375	-0,1406172
1,866	-0,2055859	-0,1406094
1,867	-0,1866016	-0,1412741
1,868	-0,1775781	-0,1426027
1,869	-0,1483984	-0,1445148
1,87	-0,098125	-0,1469299
1,871	-0,1312891	-0,1497533
1,872	-0,1686328	-0,1528744
1,873	-0,08507813	-0,1561666
1,874	0,02765625	-0,1594471
1,875	0,04886719	-0,1627044
1,876	-0,03746094	-0,1657764
1,877	-0,1392969	-0,1685555
1,878	-0,2036328	-0,1709437
1,879	-0,2425391	-0,1728487
1,88	-0,2524219	-0,1741814
1,881	-0,2575781	-0,1748093
1,882	-0,2371875	-0,1748216
1,883	-0,1668359	-0,1741482
1,884	-0,1357422	-0,172786
1,885	-0,1473828	-0,1707466
1,886	-0,1479688	-0,1680518
1,887	-0,1390625	-0,1647312
1,888	-0,1327734	-0,1607923
1,889	-0,2232813	-0,1563843
1,89	-0,3430859	-0,1515526
1,891	-0,3210938	-0,1463739
1,892	-0,2559375	-0,1409262
1,893	-0,2114844	-0,1352891
1,894	-0,08972656	-0,1295442
1,895	0,02480469	-0,1237789
1,896	-0,00609375	-0,1180581
1,897	-0,1047656	-0,112441
1,898	-0,1514844	-0,1069741
1,899	-0,1233594	-0,101702
1,9	-0,03316406	-0,09667431
1,901	0,01464844	-0,09195042
1,902	-0,03546875	-0,08763329
1,903	-0,07148438	-0,08365824
1,904	-0,05128906	-0,08005231
1,905	0,01105469	-0,07681175
1,906	0,06503906	-0,07394642
1,907	0,009804688	-0,07149007
1,908	-0,09671875	-0,06950373
1,909	-0,1580859	-0,06811965
1,91	-0,1634375	-0,06724472
1,911	-0,1436328	-0,06691696
1,912	-0,1282813	-0,06714463
1,913	-0,1005469	-0,06795863
1,914	-0,07355469	-0,06941811
1,915	-0,07113281	-0,07160783
1,916	-0,09417969	-0,07467055
1,917	-0,1055078	-0,07853856
1,918	-0,0834375	-0,08324949
1,919	-0,08808594	-0,08880814
1,92	-0,1173828	-0,09522687
1,921	-0,1139844	-0,1025239
1,922	-0,09058594	-0,1107149
1,923	-0,09007812	-0,119839
1,924	-0,1125	-0,129738
1,925	-0,1164844	-0,1403578
1,926	-0,1158984	-0,1516006
1,927	-0,1751563	-0,1633602
1,928	-0,2514844	-0,1755176
1,929	-0,2460156	-0,1879359
1,93	-0,2292188	-0,2005092
1,931	-0,2955859	-0,212893
1,932	-0,3357813	-0,224966
1,933	-0,2690234	-0,2365529
1,934	-0,1718359	-0,2474804
1,935	-0,1246875	-0,2575775
1,936	-0,1525	-0,2666793
1,937	-0,2212891	-0,2747151
1,938	-0,2667578	-0,2813255
1,939	-0,2447266	-0,2865427
1,94	-0,2049609	-0,2903342
1,941	-0,2065234	-0,2926851
1,942	-0,2105469	-0,2936012
1,943	-0,2257813	-0,2931196
1,944	-0,2760547	-0,2913897
1,945	-0,314375	-0,2883596
1,946	-0,3120703	-0,2843398
1,947	-0,2873438	-0,2795694
1,948	-0,3248828	-0,2742777
1,949	-0,4265234	-0,2686803
1,95	-0,4485156	-0,2629849
1,951	-0,3593359	-0,2573775
1,952	-0,2616797	-0,2521921
1,953	-0,2311328	-0,2477336
1,954	-0,2628516	-0,2442737
1,955	-0,2744531	-0,2420089
1,956	-0,2635156	-0,2410433
1,957	-0,3083594	-0,2413835
1,958	-0,3576563	-0,2427766
1,959	-0,3141406	-0,2456648
1,96	-0,1855859	-0,2498842
1,961	-0,0815625	-0,2553584
1,962	-0,1333594	-0,2619106
1,963	-0,2673437	-0,2692365
1,964	-0,3135938	-0,2768955
1,965	-0,2907812	-0,2840536
1,966	-0,265	-0,2910095
1,967	-0,229375	-0,2971171
1,968	-0,2042969	-0,3019754
1,969	-0,2144922	-0,3051484
1,97	-0,2310547	-0,3061446
1,971	-0,235625	-0,304417
1,972	-0,2519531	-0,2991402
1,973	-0,2887891	-0,2906047
1,974	-0,3169531	-0,2783062
1,975	-0,3257813	-0,2620462
1,976	-0,3077344	-0,2416911
1,977	-0,2183984	-0,2171733
1,978	-0,0740625	-0,1885042
1,979	0,03488281	-0,1556817
1,98	0,02699219	-0,1192898
1,981	-0,06273437	-0,07955107
1,982	-0,114375	-0,03687519
1,983	-0,1476953	0,008234707
1,984	-0,2405078	0,05515842
1,985	-0,3563281	0,1031429
1,986	-0,3456641	0,1512817
1,987	-0,08007813	0,1987827
1,988	0,2689844	0,2449373
1,989	0,4692969	0,2890541
1,99	0,5555469	0,3304101
1,991	0,5875781	0,3682161
1,992	0,5578125	0,4016146
1,993	0,5157031	0,4296458
1,994	0,5007422	0,4518678
1,995	0,5109766	0,4679824
1,996	0,5919531	0,4778048
1,997	0,6992188	0,4811689
1,998	0,6887109	0,4779037
1,999	0,5900391	0,4678501
2	0,5144531	0,4508767
2,001	0,4953125	0,4273317
2,002	0,4879297	0,3978339
2,003	0,3758203	0,3630291
2,004	0,2136328	0,3235412
2,005	0,1433984	0,2799676
2,006	0,09101563	0,2329101
2,007	-0,001484375	0,1829942
2,008	-0,07800781	0,1311464
2,009	-0,1315625	0,07835687
2,01	-0,1380859	0,02553092
2,011	-0,09046875	-0,02653095
2,012	-0,04011719	-0,07711916
2,013	-0,01992188	-0,1255885
2,014	-0,07296875	-0,1714409
2,015	-0,1739063	-0,2137991
2,016	-0,2243359	-0,2523173
2,017	-0,2612891	-0,2866698
2,018	-0,3395313	-0,3166345
2,019	-0,3882813	-0,3420771
2,02	-0,3805078	-0,3629433
2,021	-0,3576172	-0,3794939
2,022	-0,3564062	-0,3912387
2,023	-0,3779297	-0,3988321
2,024	-0,3819531	-0,4027067
2,025	-0,3556641	-0,4032854
2,026	-0,3181641	-0,4009772
2,027	-0,3001172	-0,3961936
2,028	-0,3217578	-0,3896686
2,029	-0,3409375	-0,3810832
2,03	-0,3458203	-0,3714651
2,031	-0,3821094	-0,3614236
2,032	-0,4156641	-0,3514439
2,033	-0,4016016	-0,3418967
2,034	-0,3374219	-0,3330678
2,035	-0,2584375	-0,3254352
2,036	-0,2376563	-0,3185395
2,037	-0,2644922	-0,3129658
2,038	-0,3234766	-0,30892
2,039	-0,3885547	-0,3064821
2,04	-0,4004687	-0,3056193
2,041	-0,3935938	-0,306212
2,042	-0,3888281	-0,3081978
2,043	-0,4059766	-0,3110636
2,044	-0,4373828	-0,3147977
2,045	-0,3971875	-0,3192326
2,046	-0,3316406	-0,324166
2,047	-0,274375	-0,3293651
2,048	-0,1742188	-0,3345774
2,049	-0,1592969	-0,3395432
2,05	-0,3004688	-0,3440476
2,051	-0,3788281	-0,3479204
2,052	-0,3296484	-0,3510325
2,053	-0,3196875	-0,3532885
2,054	-0,3303516	-0,3546204
2,055	-0,3276953	-0,354984
2,056	-0,4130078	-0,3543045
2,057	-0,5097266	-0,3527707
2,058	-0,4692969	-0,3503913
2,059	-0,3512891	-0,3472591
2,06	-0,2651953	-0,3434864
2,061	-0,2433594	-0,3391961
2,062	-0,2855859	-0,3345145
2,063	-0,3262891	-0,3295103
2,064	-0,31375	-0,3244898
2,065	-0,2781641	-0,3195367
2,066	-0,2442578	-0,3147706
2,067	-0,2245703	-0,3102864
2,068	-0,2685938	-0,306151
2,069	-0,3801172	-0,3024015
2,07	-0,4541797	-0,2989994
2,071	-0,4414453	-0,2960789
2,072	-0,3816016	-0,2935825
2,073	-0,2653516	-0,2914702
2,074	-0,1601563	-0,2896766
2,075	-0,1820313	-0,2881132
2,076	-0,275	-0,2866716
2,077	-0,3539453	-0,2851843
2,078	-0,3473438	-0,2836672
2,079	-0,2175391	-0,2819694
2,08	-0,1429688	-0,2799927
2,081	-0,2130078	-0,2776504
2,082	-0,3203906	-0,2748686
2,083	-0,4122656	-0,2715894
2,084	-0,4203125	-0,2677247
2,085	-0,3354297	-0,2634089
2,086	-0,2574219	-0,2585943
2,087	-0,226875	-0,2533101
2,088	-0,2192578	-0,2476115
2,089	-0,2102734	-0,2415775
2,09	-0,2033203	-0,235309
2,091	-0,1985156	-0,2288682
2,092	-0,1942969	-0,2225523
2,093	-0,2082422	-0,2164167
2,094	-0,2134375	-0,2105775
2,095	-0,1800391	-0,205151
2,096	-0,1608203	-0,2002497
2,097	-0,1678906	-0,1959766
2,098	-0,1694141	-0,1923517
2,099	-0,1860547	-0,1896368
2,1	-0,2039453	-0,1877866
2,101	-0,2062891	-0,1868031
2,102	-0,2159766	-0,1866663
2,103	-0,2142969	-0,1873312
2,104	-0,1922656	-0,1887225
2,105	-0,1885156	-0,1906553
2,106	-0,2021094	-0,1932234
2,107	-0,1846094	-0,1961998
2,108	-0,1605469	-0,1994283
2,109	-0,1851562	-0,2027475
2,11	-0,2251953	-0,205988
2,111	-0,2547266	-0,2089698
2,112	-0,2589453	-0,2114306
2,113	-0,2185938	-0,2134162
2,114	-0,1866406	-0,2147074
2,115	-0,1886719	-0,2151839
2,116	-0,1842188	-0,2147493
2,117	-0,1996094	-0,2133284
2,118	-0,2644141	-0,2108663
2,119	-0,2742969	-0,2072732
2,12	-0,2039453	-0,2027301
2,121	-0,1866797	-0,1972275
2,122	-0,2180078	-0,190838
2,123	-0,1888672	-0,1836559
2,124	-0,1328125	-0,175795
2,125	-0,1247656	-0,167388
2,126	-0,146875	-0,1585439
2,127	-0,1687891	-0,1495589
2,128	-0,1791797	-0,1405618
2,129	-0,1714844	-0,1317157
2,13	-0,1314453	-0,1231754
2,131	-0,0753125	-0,1150864
2,132	-0,07222656	-0,1075848
2,133	-0,08335937	-0,1007522
2,134	-0,06429688	-0,09481593
2,135	-0,061875	-0,0897949
2,136	-0,04144531	-0,08572515
2,137	0,007695312	-0,08261988
2,138	0,01160156	-0,08047042
2,139	-0,0728125	-0,07924495
2,14	-0,1645703	-0,07883163
2,141	-0,1751172	-0,07930051
2,142	-0,1785547	-0,08046807
2,143	-0,1951563	-0,08220182
2,144	-0,1556641	-0,0843687
2,145	-0,07085938	-0,08683489
2,146	0,02425781	-0,08946323
2,147	0,04613281	-0,09205406
2,148	-0,1044922	-0,09462608
2,149	-0,2808203	-0,09696406
2,15	-0,2508594	-0,09893783
2,151	-0,07882812	-0,1004454
2,152	0,02808594	-0,1014108
2,153	-0,007539062	-0,1017809
2,154	-0,08222656	-0,1014835
2,155	-0,1064844	-0,1006113
2,156	-0,1047266	-0,09911149
2,157	-0,0690625	-0,09699828
2,158	-0,04941406	-0,09431264
2,159	-0,09652344	-0,09112145
2,16	-0,1250781	-0,08751441
2,161	-0,0928125	-0,08359273
2,162	-0,04871094	-0,0794893
2,163	-0,03414063	-0,07529532
2,164	-0,05296875	-0,07111105
2,165	-0,06488281	-0,067039
2,166	-0,05375	-0,06318578
2,167	-0,07039062	-0,05966149
2,168	-0,1210547	-0,0565901
2,169	-0,1350391	-0,0540177
2,17	-0,1319141	-0,05201076
2,171	-0,1304297	-0,05060665
2,172	-0,05125	-0,04983092
2,173	0,03289063	-0,04970099
2,174	0,01753906	-0,05022697
2,175	-0,01632812	-0,05142627
2,176	-0,00890625	-0,05322038
2,177	-0,02765625	-0,05556524
2,178	-0,09214844	-0,05839548
2,179	-0,09527344	-0,06164415
2,18	-0,04675781	-0,06524502
2,181	-0,06648437	-0,06913223
2,182	-0,09183594	-0,07324938
2,183	-0,06054688	-0,07748489
2,184	-0,05519531	-0,08175988
2,185	-0,08484375	-0,08599786
2,186	-0,09632813	-0,0901349
2,187	-0,08265625	-0,09411873
2,188	-0,07011719	-0,09790668
2,189	-0,07335938	-0,1014723
2,19	-0,08863281	-0,1047602
2,191	-0,1094141	-0,1077584
2,192	-0,1221484	-0,1104584
2,193	-0,134375	-0,1128606
2,194	-0,1523828	-0,1149721
2,195	-0,1609375	-0,1168047
2,196	-0,1734766	-0,1183856
2,197	-0,179375	-0,1197048
2,198	-0,1645312	-0,1208149
2,199	-0,1813281	-0,1217529
2,2	-0,1841406	-0,1225492
2,201	-0,0996875	-0,1232259
2,202	-0,04175781	-0,1237975
2,203	-0,07765625	-0,124285
2,204	-0,1272266	-0,124668
2,205	-0,1527734	-0,1249938
2,206	-0,1271094	-0,1252837
2,207	-0,03125	-0,125545
2,208	0,09605469	-0,1257698
2,209	0,1303125	-0,1259386
2,21	-0,03953125	-0,1260299
2,211	-0,2230078	-0,1260089
2,212	-0,2203516	-0,1258867
2,213	-0,1661328	-0,1256597
2,214	-0,1962109	-0,1253158
2,215	-0,2546484	-0,124834
2,216	-0,2169531	-0,1241876
2,217	-0,1082422	-0,1233445
2,218	-0,1069922	-0,1223017
2,219	-0,1996484	-0,1210619
2,22	-0,2191797	-0,1196309
2,221	-0,1561719	-0,118014
2,222	-0,09320312	-0,1162154
2,223	-0,06457031	-0,1142401
2,224	-0,08855469	-0,1120839
2,225	-0,1350391	-0,1098016
2,226	-0,1205859	-0,1074097
2,227	-0,03675781	-0,1049373
2,228	-0,005546875	-0,1024136
2,229	-0,07632812	-0,09986766
2,23	-0,1446875	-0,09732879
2,231	-0,1941016	-0,09480742
2,232	-0,2000781	-0,09239325
2,233	-0,09628906	-0,09009516
2,234	-0,008984375	-0,08793858
2,235	-0,01136719	-0,08594575
2,236	-0,02511719	-0,08413513
2,237	-0,01132813	-0,08252075
2,238	0,02796875	-0,08108385
2,239	0,01816406	-0,07991053
2,24	-0,03808594	-0,07896827
2,241	-0,03871094	-0,07824932
2,242	-0,03605469	-0,07774252
2,243	-0,07757812	-0,07743204
2,244	-0,1068359	-0,07729549
2,245	-0,1555859	-0,07727118
2,246	-0,2263672	-0,07741765
2,247	-0,2544531	-0,07766194
2,248	-0,2236719	-0,07796465
2,249	-0,1318359	-0,07828818
2,25	-0,03957031	-0,07859525
2,251	-0,04660156	-0,07884698
2,252	-0,1098828	-0,07897939
2,253	-0,09921875	-0,07901495
2,254	-0,05246094	-0,07888535
2,255	-0,06527344	-0,07855249
2,256	-0,08066406	-0,07798752
2,257	-0,07703125	-0,07717163
2,258	-0,08453125	-0,07609564
2,259	-0,08195313	-0,07475979
2,26	-0,07601563	-0,07316265
2,261	-0,03597656	-0,0712991
2,262	0,03019531	-0,06917424
2,263	0,05003906	-0,06680684
2,264	0,05449219	-0,06423305
2,265	0,0628125	-0,06150791
2,266	0,02574219	-0,05872597
2,267	-0,06363281	-0,05589094
2,268	-0,1338672	-0,05307483
2,269	-0,1191016	-0,05033448
2,27	-0,07878906	-0,04773597
2,271	-0,07800781	-0,04535865
2,272	-0,06972656	-0,04329595
2,273	-0,0478125	-0,0416785
2,274	-0,05972656	-0,0405137
2,275	-0,08660156	-0,03988025
2,276	-0,1095703	-0,03982753
2,277	-0,1031641	-0,04040255
2,278	-0,06464844	-0,04165113
2,279	-0,05390625	-0,04361562
2,28	-0,06535156	-0,0463486
2,281	-0,07859375	-0,0497939
2,282	-0,1051172	-0,05393553
2,283	-0,1132813	-0,0587306
2,284	-0,07167969	-0,06412846
2,285	-0,01417969	-0,07006958
2,286	-0,001132812	-0,07648184
2,287	-0,02492188	-0,08329903
2,288	-0,02449219	-0,09033691
2,289	-0,02800781	-0,09748678
2,29	-0,08730469	-0,1046194
2,291	-0,1112109	-0,1116099
2,292	-0,07160156	-0,118338
2,293	-0,09402344	-0,1246884
2,294	-0,1728906	-0,1305969
2,295	-0,1884375	-0,1358181
2,296	-0,1308984	-0,1403082
2,297	-0,07804688	-0,1439949
2,298	-0,09332031	-0,1468261
2,299	-0,1766016	-0,1487748
2,3	-0,256875	-0,1498429
2,301	-0,2557422	-0,1501262
2,302	-0,1944141	-0,1495139
2,303	-0,1533984	-0,148168
2,304	-0,1240625	-0,1462024
2,305	-0,0928125	-0,1437401
2,306	-0,07933594	-0,1409156
2,307	-0,1008984	-0,1378792
2,308	-0,1595703	-0,1348186
2,309	-0,1669922	-0,1318825
2,31	-0,1010156	-0,1293187
2,311	-0,05382813	-0,127332
2,312	-0,06398437	-0,1260906
2,313	-0,1111719	-0,1257169
2,314	-0,1699219	-0,1262855
2,315	-0,1961719	-0,1277372
2,316	-0,179375	-0,1303782
2,317	-0,1873828	-0,1342011
2,318	-0,2243359	-0,1392287
2,319	-0,1943359	-0,1454086
2,32	-0,1355469	-0,1525916
2,321	-0,1744531	-0,1605231
2,322	-0,2425391	-0,1686537
2,323	-0,2371484	-0,1772477
2,324	-0,2121484	-0,1858835
2,325	-0,1787109	-0,1942954
2,326	-0,0965625	-0,2021625
2,327	-0,01949219	-0,2090855
2,328	-0,0165625	-0,2145818
2,329	-0,1157422	-0,2178804
2,33	-0,2201172	-0,2191892
2,331	-0,2298438	-0,2180008
2,332	-0,2376172	-0,2140481
2,333	-0,2621875	-0,2070805
2,334	-0,2451953	-0,1968544
2,335	-0,2177734	-0,1831401
2,336	-0,1890234	-0,1656073
2,337	-0,1584375	-0,144606
2,338	-0,1514844	-0,1200844
2,339	-0,1415234	-0,09218417
2,34	-0,07605469	-0,06111477
2,341	0,02058594	-0,02716727
2,342	0,08585938	0,009269831
2,343	0,06230469	0,04770763
2,344	0,010625	0,08756653
2,345	0,04855469	0,1283348
2,346	0,09335938	0,1694647
2,347	0,1460547	0,210358
2,348	0,2713672	0,2503372
2,349	0,3497656	0,2886339
2,35	0,3942188	0,3243395
2,351	0,4283984	0,3569239
2,352	0,4076172	0,3858759
2,353	0,3724219	0,4107729
2,354	0,3084766	0,4311929
2,355	0,2851563	0,4466872
2,356	0,3849609	0,4567864
2,357	0,4790234	0,4609934
2,358	0,48	0,4592614
2,359	0,4866406	0,4517434
2,36	0,5429297	0,4386584
2,361	0,5646094	0,4202314
2,362	0,5307031	0,3966826
2,363	0,4774609	0,3682522
2,364	0,4030469	0,3352443
2,365	0,3311328	0,2982056
2,366	0,2908203	0,2579366
2,367	0,2535547	0,2151866
2,368	0,1813281	0,1706548
2,369	0,07578125	0,1249996
2,37	-0,02253906	0,07886824
2,371	-0,09144531	0,03290673
2,372	-0,1351172	-0,01210544
2,373	-0,1629688	-0,05546872
2,374	-0,1783594	-0,0965716
2,375	-0,1724219	-0,1348939
2,376	-0,1847266	-0,1699888
2,377	-0,2277734	-0,2014673
2,378	-0,2503516	-0,2291112
2,379	-0,2523828	-0,2523556
2,38	-0,2311328	-0,2712985
2,381	-0,2082422	-0,2859848
2,382	-0,2471094	-0,2965052
2,383	-0,2929297	-0,3029867
2,384	-0,2988281	-0,305599
2,385	-0,2930469	-0,3047922
2,386	-0,2541406	-0,3003057
2,387	-0,1990625	-0,2929567
2,388	-0,2005859	-0,2832942
2,389	-0,2615234	-0,2718112
2,39	-0,3137109	-0,2589489
2,391	-0,3450781	-0,2451215
2,392	-0,3967969	-0,2309765
2,393	-0,36375	-0,216318
2,394	-0,1426172	-0,201972
2,395	0,02550781	-0,1884111
2,396	0,003046875	-0,1759919
2,397	-0,0184375	-0,1649682
2,398	-0,05261719	-0,1555173
2,399	-0,1384766	-0,147907
2,4	-0,1948047	-0,141834
2,401	-0,2529297	-0,1375683
2,402	-0,2513672	-0,135149
2,403	-0,1545703	-0,1345363
2,404	-0,1129688	-0,1356199
2,405	-0,1694922	-0,1382329
2,406	-0,2437891	-0,1421854
2,407	-0,2743359	-0,1471866
2,408	-0,2460547	-0,153021
2,409	-0,2126562	-0,1594539
2,41	-0,1708203	-0,1662537
2,411	-0,09136719	-0,1731904
2,412	-0,07097656	-0,1800342
2,413	-0,1691797	-0,1865066
2,414	-0,2666797	-0,192541
2,415	-0,2457031	-0,1978894
2,416	-0,1687891	-0,2024048
2,417	-0,1617969	-0,2059848
2,418	-0,1954297	-0,208565
2,419	-0,1790625	-0,2101109
2,42	-0,1551953	-0,2105636
2,421	-0,1571875	-0,2100879
2,422	-0,1460547	-0,2086762
2,423	-0,1433203	-0,2063985
2,424	-0,1469531	-0,2033464
2,425	-0,1348828	-0,1996292
2,426	-0,1601563	-0,1953692
2,427	-0,2502734	-0,1906799
2,428	-0,3193359	-0,1857616
2,429	-0,2629297	-0,1807437
2,43	-0,1579297	-0,1757578
2,431	-0,1442578	-0,170918
2,432	-0,1798828	-0,166321
2,433	-0,1944141	-0,1620484
2,434	-0,2072266	-0,1581583
2,435	-0,2099609	-0,154742
2,436	-0,1716016	-0,1518441
2,437	-0,1198828	-0,1494914
2,438	-0,09875	-0,1476843
2,439	-0,1159766	-0,1463986
2,44	-0,1612891	-0,1455884
2,441	-0,2039063	-0,1451572
2,442	-0,2177344	-0,1451368
2,443	-0,1779297	-0,1454319
2,444	-0,1080078	-0,1459738
2,445	-0,1094531	-0,1466871
2,446	-0,1526562	-0,1474869
2,447	-0,1283203	-0,1482788
2,448	-0,104375	-0,1488973
2,449	-0,1447656	-0,149443
2,45	-0,1705469	-0,1497845
2,451	-0,1482813	-0,1498655
2,452	-0,1145703	-0,1496376
2,453	-0,1228125	-0,1490545
2,454	-0,1529297	-0,1480678
2,455	-0,1090234	-0,1465504
2,456	-0,08539062	-0,1447052
2,457	-0,1666016	-0,1424517
2,458	-0,1745703	-0,1397952
2,459	-0,1063281	-0,1367447
2,46	-0,1067188	-0,1333082
2,461	-0,1262109	-0,1294888
2,462	-0,1053906	-0,1252126
2,463	-0,07253906	-0,1207168
2,464	-0,08707031	-0,1159629
2,465	-0,1509766	-0,1109828
2,466	-0,1891406	-0,1058042
2,467	-0,1692578	-0,1004482
2,468	-0,1517578	-0,09492898
2,469	-0,1858203	-0,08919019
2,47	-0,1853125	-0,08344731
2,471	-0,1244141	-0,07765997
2,472	-0,05554688	-0,07184902
2,473	0,01964844	-0,06603206
2,474	0,04914063	-0,06022367
2,475	0,004296875	-0,05443613
2,476	-0,04378906	-0,04861752
2,477	-0,0309375	-0,0429698
2,478	-0,001328125	-0,03743511
2,479	0,02046875	-0,03202122
2,48	0,03398438	-0,02673985
2,481	-0,04523438	-0,02160699
2,482	-0,1464844	-0,0166419
2,483	-0,1525	-0,01179977
2,484	-0,07996094	-0,007289294
2,485	0,03984375	-0,003035486
2,486	0,1149219	0,0009638783
2,487	0,1143359	0,004703371
2,488	0,1111719	0,008170695
2,489	0,08851563	0,01135024
2,49	0,02636719	0,01429506
2,491	-0,03550781	0,01680636
2,492	-0,07167969	0,01898314
2,493	-0,01476563	0,0208497
2,494	0,09625	0,02242331
2,495	0,09125	0,02371611
2,496	-0,01910156	0,02473993
2,497	-0,08429688	0,02557514
2,498	-0,09941406	0,02606591
2,499	-0,1233594	0,02633308
2,5	-0,09425781	0,02642621
2,501	0,0371875	0,02638761
2,502	0,1694531	0,02625467
2,503	0,1579297	0,0260643
2,504	0,0459375	0,02590758
2,505	-0,00953125	0,02568259
2,506	0,00609375	0,02549962
2,507	0,02527344	0,02540839
2,508	0,03980469	0,02544874
2,509	0,05988281	0,02565211
2,51	0,06472656	0,02604428
2,511	0,09417969	0,02667559
2,512	0,1398438	0,02748605
2,513	0,08308594	0,0285301
2,514	0,02335938	0,02982392
2,515	0,08179688	0,0313721
2,516	0,07175781	0,03316674
2,517	-0,05171875	0,03518795
2,518	-0,1191016	0,03740628
2,519	-0,09875	0,03978945
2,52	-0,03820312	0,04231894
2,521	0,02160156	0,04496824
2,522	0,08179688	0,0477012
2,523	0,1112891	0,05046863
2,524	0,078125	0,05320734
2,525	0,05648438	0,05582409
2,526	0,04320313	0,05830682
2,527	0,01175781	0,06059664
2,528	0,01605469	0,06265071
2,529	0,06773437	0,06442184
2,53	0,1332031	0,06585484
2,531	0,1650781	0,06688614
2,532	0,1587109	0,06742757
2,533	0,1273047	0,06748971
2,534	0,07300781	0,06703811
2,535	0,04601562	0,06606011
2,536	0,03257812	0,06454457
2,537	-0,000625	0,06248087
2,538	0,00515625	0,05986096
2,539	0,04949219	0,05667428
2,54	0,06367188	0,05297116
2,541	0,03933594	0,04878938
2,542	0,02058594	0,04417827
2,543	0,02988281	0,0391906
2,544	0,04667969	0,03388467
2,545	0,04789062	0,02832775
2,546	0,03246094	0,02259477
2,547	0,01847656	0,01678902
2,548	0,01839844	0,01099677
2,549	0,02324219	0,005305464
2,55	0,03164062	-0,0001990774
2,551	0,02980469	-0,005430306
2,552	0,0059375	-0,01029941
2,553	0,00125	-0,0147322
2,554	-0,0240625	-0,0186014
2,555	-0,1305469	-0,02187016
2,556	-0,1979297	-0,02449432
2,557	-0,1338281	-0,02643849
2,558	-0,009570313	-0,02767641
2,559	0,07601563	-0,02819338
2,56	0,08019531	-0,02802741
2,561	0,06113281	-0,02709383
2,562	0,06097656	-0,02548743
2,563	0,01683594	-0,02327133
2,564	-0,07160156	-0,02051527
2,565	-0,1266016	-0,01729865
2,566	-0,1360938	-0,01371522
2,567	-0,07566406	-0,009922999
2,568	0,04429687	-0,005910756
2,569	0,09839844	-0,001859936
2,57	0,1053125	0,002103087
2,571	0,1140625	0,005859763
2,572	0,04703125	0,009296388
2,573	-0,03316406	0,01230101
2,574	-0,0665625	0,01473173
2,575	-0,06980469	0,01658268
2,576	0,006328125	0,01774415
2,577	0,07644531	0,01815789
2,578	0,03085938	0,01778578
2,579	-0,03117188	0,01660925
2,58	-0,02109375	0,01462974
2,581	0,0121875	0,01186741
2,582	0,01863281	0,008378592
2,583	-0,03226562	0,004229827
2,584	-0,10375	-0,0004968782
2,585	-0,06640625	-0,005706335
2,586	0,0540625	-0,01128817
2,587	0,07378906	-0,01711472
2,588	-0,00328125	-0,02302565
2,589	-0,05015625	-0,02891566
2,59	-0,07054687	-0,03462941
2,591	-0,07078125	-0,04003602
2,592	-0,04457031	-0,04501251
2,593	-0,031875	-0,04944111
2,594	-0,01800781	-0,05320824
2,595	0,01238281	-0,05619653
2,596	0,006015625	-0,05835681
2,597	-0,065625	-0,05963869
2,598	-0,09371094	-0,06002166
2,599	-0,01320313	-0,05950276
2,6	0,07	-0,05809495
2,601	0,06132813	-0,05582819
2,602	-0,01699219	-0,05276047
2,603	-0,07125	-0,04895042
2,604	-0,1057031	-0,04452013
2,605	-0,1272266	-0,03958732
2,606	-0,09101563	-0,0342726
2,607	-0,1042969	-0,02870036
2,608	-0,1810938	-0,023001
2,609	-0,1387891	-0,01733468
2,61	-0,0015625	-0,01177485
2,611	0,02117188	-0,006475781
2,612	-0,0546875	-0,001551059
2,613	-0,07097656	0,002901249
2,614	-0,009570313	0,006794792
2,615	0,05585938	0,01005253
2,616	0,07839844	0,01258172
2,617	0,07347656	0,01442072
2,618	0,06089844	0,01554487
2,619	0,06253906	0,01597088
2,62	0,08132813	0,0157257
2,621	0,08679687	0,01484114
2,622	0,076875	0,01335216
2,623	0,06328125	0,01127581
2,624	0,0575	0,008749709
2,625	0,04382813	0,005856165
2,626	-0,003789062	0,002690748
2,627	-0,04734375	-0,0006645032
2,628	-0,05484375	-0,004144701
2,629	-0,05378906	-0,007701776
2,63	-0,040625	-0,01132175
2,631	-0,02503906	-0,01489959
2,632	-0,0334375	-0,01839626
2,633	-0,03855469	-0,02177573
2,634	-0,05472656	-0,02502421
2,635	-0,05582031	-0,02814959
2,636	-0,03527344	-0,03117813
2,637	-0,1133594	-0,03417058
2,638	-0,1865234	-0,03710235
2,639	-0,08175781	-0,0400267
2,64	0,04121094	-0,04298288
2,641	0,02804687	-0,04601306
2,642	-0,01019531	-0,04915892
2,643	-0,003398438	-0,05245758
2,644	-0,02265625	-0,05596571
2,645	-0,04878906	-0,05961724
2,646	-0,016875	-0,06345426
2,647	0,005546875	-0,06747593
2,648	-0,03828125	-0,07166555
2,649	-0,09445312	-0,07598949
2,65	-0,2148438	-0,0803968
2,651	-0,3442188	-0,08486642
2,652	-0,223125	-0,08918505
2,653	0,01011719	-0,09333203
2,654	0,05429688	-0,09723098
2,655	-0,004140625	-0,1008
2,656	-0,02292969	-0,1039562
2,657	-0,03628906	-0,1066214
2,658	-0,09683594	-0,1087939
2,659	-0,1323828	-0,110227
2,66	-0,0859375	-0,1109617
2,661	-0,05253906	-0,1109848
2,662	-0,06824219	-0,1102987
2,663	-0,09753906	-0,1089276
2,664	-0,1374219	-0,1069255
2,665	-0,1625391	-0,1044379
2,666	-0,1612109	-0,1014197
2,667	-0,1723828	-0,09807303
2,668	-0,1589844	-0,09455053
2,669	-0,06671875	-0,09100808
2,67	-0,01003906	-0,08760468
2,671	-0,06808594	-0,0845047
2,672	-0,1655078	-0,08186943
2,673	-0,2185938	-0,07991177
2,674	-0,1907031	-0,07881599
2,675	-0,1321484	-0,07874496
2,676	-0,07421875	-0,07981819
2,677	-0,02	-0,08209965
2,678	-0,007851563	-0,08559118
2,679	-0,01648437	-0,09012019
2,68	-0,01238281	-0,09595566
2,681	-0,02628906	-0,1029486
2,682	-0,1074609	-0,1110092
2,683	-0,1839844	-0,1199803
2,684	-0,1607031	-0,1296165
2,685	-0,1139063	-0,1395745
2,686	-0,11375	-0,1492366
2,687	-0,1518359	-0,1587498
2,688	-0,2059766	-0,1676294
2,689	-0,1897656	-0,1755562
2,69	-0,1036328	-0,1821838
2,691	-0,1026563	-0,1871213
2,692	-0,1926953	-0,1899313
2,693	-0,2308594	-0,1899844
2,694	-0,2110547	-0,1874096
2,695	-0,1984766	-0,1818427
2,696	-0,1724609	-0,1731224
2,697	-0,114375	-0,1611288
2,698	-0,08203125	-0,1457821
2,699	-0,105	-0,1270525
2,7	-0,1405078	-0,1049183
2,701	-0,1373828	-0,07972028
2,702	-0,09574219	-0,05165157
2,703	-0,07179687	-0,02101633
2,704	-0,09398438	0,01181832
2,705	-0,08203125	0,04640456
2,706	0,02667969	0,0821986
2,707	0,1341016	0,1185137
2,708	0,2078906	0,1548318
2,709	0,2821484	0,1905618
2,71	0,2962891	0,2251557
2,711	0,2679688	0,2580442
2,712	0,2476172	0,2886097
2,713	0,2564063	0,3161789
2,714	0,3269141	0,3399705
2,715	0,3866016	0,3596644
2,716	0,385	0,3749408
2,717	0,3926172	0,3855917
2,718	0,4209375	0,3914267
2,719	0,4296484	0,3922527
2,72	0,4273438	0,3878844
2,721	0,4314453	0,378148
2,722	0,4255078	0,3632492
2,723	0,3980859	0,3435777
2,724	0,3719922	0,3195584
2,725	0,3478516	0,29161
2,726	0,3050391	0,260142
2,727	0,2456641	0,2255789
2,728	0,1762109	0,1883956
2,729	0,1128125	0,149222
2,73	0,06953125	0,108831
2,731	0,0328125	0,06792142
2,732	-0,04046875	0,02712687
2,733	-0,193125	-0,01297146
2,734	-0,3079297	-0,05182156
2,735	-0,2551563	-0,08892169
2,736	-0,1547656	-0,1236379
2,737	-0,1211719	-0,1555769
2,738	-0,1404688	-0,1843995
2,739	-0,1672656	-0,2098421
2,74	-0,1385156	-0,2316999
2,741	-0,1008984	-0,2498205
2,742	-0,1304687	-0,2642406
2,743	-0,2009766	-0,2746082
2,744	-0,2649609	-0,2812962
2,745	-0,3284375	-0,2845639
2,746	-0,3737891	-0,284675
2,747	-0,3296094	-0,2818922
2,748	-0,2257031	-0,2764904
2,749	-0,1455469	-0,2689736
2,75	-0,09402344	-0,259192
2,751	-0,1217578	-0,2479323
2,752	-0,2721875	-0,2357056
2,753	-0,4023828	-0,2229414
2,754	-0,4195703	-0,2099944
2,755	-0,3233203	-0,1971686
2,756	-0,1607031	-0,1849097
2,757	-0,08078125	-0,1730492
2,758	-0,08316406	-0,1621372
2,759	-0,1087109	-0,1524515
2,76	-0,1491797	-0,1441703
2,761	-0,1618359	-0,1373816
2,762	-0,1540625	-0,1321041
2,763	-0,1442578	-0,1283678
2,764	-0,1317188	-0,125953
2,765	-0,1214063	-0,1248878
2,766	-0,1225391	-0,1250915
2,767	-0,1351172	-0,1264399
2,768	-0,1301563	-0,1287689
2,769	-0,1251563	-0,1318802
2,77	-0,1564844	-0,1355101
2,771	-0,1898828	-0,139553
2,772	-0,2384375	-0,1437511
2,773	-0,2644922	-0,1479096
2,774	-0,1597266	-0,1518553
2,775	-0,0928125	-0,1554305
2,776	-0,1885156	-0,1584879
2,777	-0,2057422	-0,1608107
2,778	-0,07046875	-0,1625143
2,779	0,03109375	-0,1634215
2,78	0,05421875	-0,1634751
2,781	-0,008007812	-0,1626534
2,782	-0,1524219	-0,1609638
2,783	-0,2511719	-0,1584359
2,784	-0,2524609	-0,1550592
2,785	-0,2140234	-0,1510702
2,786	-0,1864844	-0,1464868
2,787	-0,1640234	-0,1413961
2,788	-0,1214844	-0,1358945
2,789	-0,08792969	-0,1300866
2,79	-0,1110938	-0,1240833
2,791	-0,1408984	-0,1179762
2,792	-0,1500391	-0,1119493
2,793	-0,2080469	-0,1060802
2,794	-0,2387891	-0,100455
2,795	-0,1673047	-0,09514709
2,796	-0,08773438	-0,09022058
2,797	-0,05277344	-0,08573246
2,798	-0,05	-0,08171884
2,799	-0,0484375	-0,07825745
2,8	-0,04710938	-0,07534499
2,801	-0,07777344	-0,07298025
2,802	-0,06398437	-0,07115283
2,803	0,00625	-0,06984564
2,804	0,02265625	-0,06903573
2,805	-0,001445313	-0,06866327
2,806	-0,03054688	-0,06877609
2,807	-0,0809375	-0,06928173
2,808	-0,1097656	-0,07012296
2,809	-0,06289063	-0,0712467
2,81	-0,002226563	-0,07260198
2,811	-0,05019531	-0,07413671
2,812	-0,1309375	-0,07574446
2,813	-0,1163672	-0,07751482
2,814	-0,1126563	-0,07933278
2,815	-0,1835938	-0,0811449
2,816	-0,2177344	-0,08290514
2,817	-0,1628906	-0,08456961
2,818	-0,06222656	-0,08609151
2,819	-0,01242188	-0,08736062
2,82	-0,0528125	-0,08850425
2,821	-0,08144531	-0,08943173
2,822	-0,061875	-0,09011543
2,823	-0,05835937	-0,0905287
2,824	-0,05707031	-0,09064064
2,825	-0,06019531	-0,09041311
2,826	-0,08339844	-0,08974621
2,827	-0,08097656	-0,08877805
2,828	-0,07082031	-0,08745383
2,829	-0,07179687	-0,08577234
2,83	-0,07160156	-0,08372795
2,831	-0,09273438	-0,0813073
2,832	-0,08617187	-0,07848936
2,833	-0,01839844	-0,07519718
2,834	-0,03132812	-0,07158602
2,835	-0,1611719	-0,06763388
2,836	-0,2391797	-0,06336725
2,837	-0,1858594	-0,05880771
2,838	-0,05394531	-0,05397004
2,839	0,03445313	-0,04886369
2,84	0,035625	-0,04344265
2,841	0,02847656	-0,03789558
2,842	0,01054688	-0,03221313
2,843	-0,00953125	-0,02643638
2,844	0,02996094	-0,02060262
2,845	0,0728125	-0,01474448
2,846	0,03699219	-0,008890448
2,847	-0,07261719	-0,003007682
2,848	-0,1554297	0,002698719
2,849	-0,1252344	0,008262893
2,85	-0,04058594	0,01366237
2,851	0,02242188	0,01887582
2,852	0,04902344	0,02388321
2,853	0,04714844	0,02866682
2,854	0,03988281	0,03327375
2,855	0,04898438	0,03751832
2,856	0,05296875	0,04148087
2,857	0,03679688	0,04517733
2,858	0,07027344	0,04861858
2,859	0,1544922	0,05181028
2,86	0,1771094	0,05475529
2,861	0,1164063	0,05751463
2,862	0,06589844	0,05993676
2,863	0,07765625	0,06212695
2,864	0,08929687	0,06412237
2,865	0,02929688	0,06594807
2,866	-0,02769531	0,06761706
2,867	-0,01265625	0,0691339
2,868	0,0128125	0,07054572
2,869	0,0475	0,07173181
2,87	0,06621094	0,07278193
2,871	-0,008320312	0,07372631
2,872	-0,04535156	0,07458097
2,873	0,06132813	0,07534805
2,874	0,1761719	0,07601975
2,875	0,1987891	0,07661103
2,876	0,1559375	0,0770442
2,877	0,09992188	0,07737566
2,878	0,068125	0,07762449
2,879	0,05988281	0,07779862
2,88	0,04019531	0,07789443
2,881	0,01804688	0,07789959
2,882	0,05296875	0,07780156
2,883	0,1350391	0,07758895
2,884	0,1955859	0,07728944
2,885	0,1812891	0,07692037
2,886	0,07585938	0,07649059
2,887	-0,02234375	0,07599837
2,888	-0,01480469	0,07543247
2,889	0,03355469	0,07475729
2,89	0,05707031	0,07402283
2,891	0,07707031	0,07322729
2,892	0,10875	0,07238092
2,893	0,1025781	0,0714858
2,894	0,04425781	0,07053308
2,895	0,04914063	0,06950287
2,896	0,1216016	0,06833485
2,897	0,1271875	0,06710547
2,898	0,06246094	0,06578089
2,899	0,02277344	0,06435441
2,9	0,05433594	0,06281384
2,901	0,1021484	0,06113969
2,902	0,07648438	0,0593053
2,903	-0,0078125	0,05724394
2,904	-0,06628906	0,05504007
2,905	-0,01519531	0,05265019
2,906	0,1294141	0,05006695
2,907	0,2050781	0,04728416
2,908	0,1510156	0,04429659
2,909	0,04148438	0,04110076
2,91	-0,05878906	0,03766339
2,911	-0,08019531	0,03409409
2,912	-0,034375	0,03037484
2,913	0,01972656	0,02652591
2,914	0,05386719	0,02257307
2,915	0,02980469	0,01854803
2,916	-0,03015625	0,0144885
2,917	-0,05203125	0,01040629
2,918	-0,01679687	0,006439493
2,919	0,03390625	0,002590237
2,92	0,06976562	-0,001105432
2,921	0,08996094	-0,004608647
2,922	0,1044922	-0,007877647
2,923	0,1051172	-0,01086945
2,924	0,04679688	-0,01357286
2,925	-0,0421875	-0,01587231
2,926	-0,08105469	-0,01779778
2,927	-0,07839844	-0,01935055
2,928	-0,07085938	-0,02053207
2,929	-0,05074219	-0,02134381
2,93	-0,0190625	-0,02178987
2,931	-0,01925781	-0,02190465
2,932	-0,06054688	-0,02164994
2,933	-0,08859375	-0,02111027
2,934	-0,09203125	-0,02034284
2,935	-0,09148438	-0,01939925
2,936	-0,0590625	-0,01832449
2,937	0,004101563	-0,01715874
2,938	0,05285156	-0,01595133
2,939	0,05339844	-0,01472036
2,94	-0,003632813	-0,01354337
2,941	-0,0121875	-0,01247362
2,942	0,05273438	-0,01154948
2,943	0,05660156	-0,01079311
2,944	0,00171875	-0,01021136
2,945	-0,04574219	-0,009795954
2,946	-0,05109375	-0,009546313
2,947	0,02320313	-0,00945932
2,948	0,0959375	-0,009521015
2,949	0,05757813	-0,009705181
2,95	-0,01761719	-0,009973264
2,951	-0,08730469	-0,01027558
2,952	-0,1942578	-0,01054738
2,953	-0,1745703	-0,01075083
2,954	-0,01082031	-0,01082903
2,955	0,07675781	-0,01073338
2,956	0,06859375	-0,01041903
2,957	0,04855469	-0,009846479
2,958	0,01984375	-0,008983448
2,959	-0,02527344	-0,007804794
2,96	-0,04488281	-0,006304674
2,961	-0,020625	-0,004475978
2,962	0,03472656	-0,002326844
2,963	0,07308594	0,000120415
2,964	0,030625	0,002827652
2,965	-0,02101563	0,00573993
2,966	-0,01933594	0,008783475
2,967	-0,006835938	0,01188985
2,968	0,001328125	0,01498785
2,969	0,02742188	0,01800356
2,97	0,07449219	0,02085806
2,971	0,06257812	0,02346678
2,972	-0,020625	0,02574099
2,973	-0,045	0,02758799
2,974	0,006953125	0,02894713
2,975	0,03878906	0,02977331
2,976	0,05707031	0,03003443
2,977	0,09855469	0,02970735
2,978	0,083125	0,02877751
2,979	-0,04570313	0,02724137
2,98	-0,1687891	0,02510368
2,981	-0,1259766	0,02242727
2,982	0,01414063	0,01927943
2,983	0,08945313	0,01574043
2,984	0,1019922	0,01189387
2,985	0,05855469	0,007824926
2,986	-0,005351563	0,003620914
2,987	-0,0140625	-0,0006470238
2,988	0,002382812	-0,004815055
2,989	0,02480469	-0,008789713
2,99	0,03855469	-0,01247204
2,991	0,03769531	-0,01578037
2,992	0,06507813	-0,01865327
2,993	0,086875	-0,02105109
2,994	0,06050781	-0,02299321
2,995	0,001601563	-0,02436307
2,996	-0,07472656	-0,02520144
2,997	-0,1319141	-0,02553312
2,998	-0,1216016	-0,025404
2,999	-0,05957031	-0,02488282
3	-0,02945313	-0,0240622
3,001	-0,05488281	-0,02310186
3,002	-0,06484375	-0,02199271
3,003	-0,0409375	-0,02090209
3,004	-0,05917969	-0,01995124
3,005	-0,1060547	-0,01925759
3,006	-0,09335938	-0,01893423
3,007	-0,04757812	-0,01908887
3,008	-0,007421875	-0,01986005
3,009	0,03980469	-0,02121027
3,01	0,06441406	-0,0232377
3,011	0,03917969	-0,025976
3,012	-0,01804688	-0,02943329
3,013	-0,05222656	-0,0335918
3,014	-0,02417969	-0,03840696
3,015	0,01320313	-0,04384235
3,016	-0,01796875	-0,04969118
3,017	-0,1085938	-0,05587714
3,018	-0,1246484	-0,06227384
3,019	-0,009296875	-0,06874418
3,02	0,04042969	-0,0751429
3,021	-0,033125	-0,08131933
3,022	-0,09972656	-0,08716455
3,023	-0,1658984	-0,09240378
3,024	-0,1901563	-0,09695749
3,025	-0,1270313	-0,1007211
3,026	-0,06097656	-0,1036109
3,027	-0,04640625	-0,1055681
3,028	-0,08601562	-0,1065643
3,029	-0,1358984	-0,106648
3,03	-0,1427344	-0,1057474
3,031	-0,09375	-0,1039967
3,032	-0,03421875	-0,1015092
3,033	-0,05277344	-0,09841365
3,034	-0,1181641	-0,09485367
3,035	-0,1101953	-0,09098998
3,036	-0,05195313	-0,08699786
3,037	-0,03261719	-0,08310854
3,038	-0,07496094	-0,07956148
3,039	-0,1537891	-0,07657742
3,04	-0,2019141	-0,07434062
3,041	-0,2117969	-0,07298793
3,042	-0,2057031	-0,0726044
3,043	-0,168125	-0,07312936
3,044	-0,1070313	-0,07488322
3,045	-0,05242188	-0,07783576
3,046	-0,045	-0,08199128
3,047	-0,05042969	-0,08728005
3,048	-0,02269531	-0,09354001
3,049	0,01910156	-0,1005091
3,05	0,0478125	-0,1076622
3,051	0,009414063	-0,1151671
3,052	-0,06804688	-0,1225928
3,053	-0,1122266	-0,1296461
3,054	-0,1059766	-0,1359945
3,055	-0,09820313	-0,1412511
3,056	-0,1480078	-0,1449725
3,057	-0,1776953	-0,146513
3,058	-0,1503516	-0,1459557
3,059	-0,1271094	-0,1428731
3,06	-0,1242578	-0,1370362
3,061	-0,1463672	-0,128255
3,062	-0,2091016	-0,1163777
3,063	-0,2609766	-0,1012992
3,064	-0,2257813	-0,08291105
3,065	-0,1569922	-0,06148543
3,066	-0,07945312	-0,03711798
3,067	0,02671875	-0,01003352
3,068	0,0928125	0,01946921
3,069	0,09511719	0,05100137
3,07	0,08550781	0,0840705
3,071	0,1159375	0,1180391
3,072	0,1748047	0,1524068
3,073	0,2101953	0,1866038
3,074	0,2252344	0,2200854
3,075	0,2496484	0,2522764
3,076	0,2837891	0,2825447
3,077	0,3042187	0,3101966
3,078	0,3198437	0,3344209
3,079	0,3649219	0,3548593
3,08	0,3987891	0,3711301
3,081	0,3846484	0,382967
3,082	0,3722656	0,3901258
3,083	0,3894141	0,3923656
3,084	0,4170703	0,3894583
3,085	0,4616016	0,3811858
3,086	0,4941406	0,3677279
3,087	0,44	0,3494192
3,088	0,343125	0,3266492
3,089	0,2981641	0,2998143
3,09	0,2513281	0,2693144
3,091	0,1444531	0,2355753
3,092	0,09160156	0,1990754
3,093	0,1017969	0,1604783
3,094	0,08398438	0,1205638
3,095	0,07273438	0,08005255
3,096	0,04117188	0,0396041
3,097	-0,009296875	-0,0001714831
3,098	-0,03195312	-0,03869316
3,099	-0,09308594	-0,07544047
3,1	-0,1544531	-0,1097253
3,101	-0,1361719	-0,1411337
3,102	-0,1106641	-0,169304
3,103	-0,1324219	-0,1939595
3,104	-0,1755859	-0,2148953
3,105	-0,2182813	-0,2319719
3,106	-0,2536328	-0,2452647
3,107	-0,3102734	-0,2544118
3,108	-0,3875781	-0,259817
3,109	-0,4199609	-0,2617683
3,11	-0,3632813	-0,2605695
3,111	-0,2583203	-0,2565358
3,112	-0,1786719	-0,2500067
3,113	-0,1187891	-0,2415732
3,114	-0,0815625	-0,2311075
3,115	-0,09953125	-0,2194513
3,116	-0,1222266	-0,2071565
3,117	-0,1210938	-0,1946925
3,118	-0,1244922	-0,1824528
3,119	-0,1275391	-0,1707778
3,12	-0,1417188	-0,1601546
3,121	-0,1996094	-0,150386
3,122	-0,2375391	-0,1420173
3,123	-0,200625	-0,1353017
3,124	-0,1677734	-0,1303845
3,125	-0,1882031	-0,1273136
3,126	-0,2160938	-0,1260572
3,127	-0,2238672	-0,1265969
3,128	-0,1965625	-0,1285981
3,129	-0,1218359	-0,1320198
3,13	-0,100625	-0,1366992
3,131	-0,1580859	-0,1424315
3,132	-0,1577344	-0,1489727
3,133	-0,09128906	-0,1560465
3,134	-0,05835937	-0,1633336
3,135	-0,1058203	-0,1706006
3,136	-0,178125	-0,1775608
3,137	-0,2148438	-0,183982
3,138	-0,2312109	-0,1896645
3,139	-0,2267578	-0,1944364
3,14	-0,2060937	-0,1981499
3,141	-0,1708984	-0,2006326
3,142	-0,1447266	-0,2019488
3,143	-0,1934375	-0,2020099
3,144	-0,2532422	-0,2008236
3,145	-0,2376953	-0,1984384
3,146	-0,1890625	-0,1949374
3,147	-0,1522656	-0,1904328
3,148	-0,1472266	-0,1850353
3,149	-0,1460547	-0,1789933
3,15	-0,1190234	-0,1724589
3,151	-0,1148438	-0,1656118
3,152	-0,155625	-0,1586278
3,153	-0,1946875	-0,1516784
3,154	-0,1708984	-0,1449296
3,155	-0,09660156	-0,138535
3,156	-0,07433594	-0,1326584
3,157	-0,1835547	-0,1274183
3,158	-0,3427344	-0,1229047
3,159	-0,3462891	-0,1191762
3,16	-0,1713672	-0,1162636
3,161	-0,003242188	-0,1141729
3,162	0,04707031	-0,1128759
3,163	0,002539063	-0,1123621
3,164	-0,05847656	-0,1125529
3,165	-0,1032813	-0,1133645
3,166	-0,1360938	-0,1147007
3,167	-0,1437891	-0,1164556
3,168	-0,159375	-0,1185147
3,169	-0,1660938	-0,1207251
3,17	-0,1085156	-0,1230569
3,171	-0,08320313	-0,1253535
3,172	-0,1408203	-0,1275086
3,173	-0,165	-0,1294335
3,174	-0,1391016	-0,1310541
3,175	-0,1135547	-0,1323092
3,176	-0,08785156	-0,1331024
3,177	-0,09253906	-0,1335376
3,178	-0,1230859	-0,1335508
3,179	-0,141875	-0,1331452
3,18	-0,1502344	-0,1323408
3,181	-0,1273438	-0,1311681
3,182	-0,08980469	-0,1296641
3,183	-0,08277344	-0,1278215
3,184	-0,09890625	-0,1258348
3,185	-0,1494922	-0,1237198
3,186	-0,1942578	-0,1215364
3,187	-0,1861328	-0,1193368
3,188	-0,1785156	-0,1171613
3,189	-0,1763281	-0,1150355
3,19	-0,1514453	-0,1129257
3,191	-0,1225391	-0,1109753
3,192	-0,1061328	-0,109158
3,193	-0,09191406	-0,1074745
3,194	-0,09214844	-0,1059083
3,195	-0,1274609	-0,1044241
3,196	-0,1083984	-0,1029689
3,197	-0,01230469	-0,1014324
3,198	0,02816406	-0,09987919
3,199	-0,003203125	-0,0982185
3,2	-0,02238281	-0,09639894
3,201	-0,0203125	-0,09436755
3,202	-0,05480469	-0,0920702
3,203	-0,10375	-0,08945353
3,204	-0,09652344	-0,08642806
3,205	-0,12625	-0,08308351
3,206	-0,2199219	-0,07936353
3,207	-0,2601172	-0,07526577
3,208	-0,2360156	-0,07080188
3,209	-0,1553516	-0,06599785
3,21	-0,05585938	-0,06089431
3,211	0,007773438	-0,05550934
3,212	0,05023437	-0,05001971
3,213	0,06550781	-0,0444489
3,214	0,07148438	-0,03886647
3,215	0,074375	-0,03335069
3,216	0,03707031	-0,02798846
3,217	-0,03484375	-0,0228733
3,218	-0,1144141	-0,01806661
3,219	-0,1452344	-0,01375268
3,22	-0,07902344	-0,009943691
3,221	0,01359375	-0,006681279
3,222	0,02714844	-0,004002514
3,223	-0,04421875	-0,001940136
3,224	-0,1241406	-0,0005194565
3,225	-0,09902344	0,0002802117
3,226	0,0096875	0,0003776969
3,227	0,08683594	-0,0001347427
3,228	0,1408203	-0,001194411
3,229	0,1505469	-0,0027366
3,23	0,07539063	-0,004694909
3,231	-0,02765625	-0,006998365
3,232	-0,0959375	-0,009540396
3,233	-0,07109375	-0,01230388
3,234	0,0109375	-0,01514337
3,235	0,02785156	-0,01795385
3,236	-0,01964844	-0,02064463
3,237	-0,04867188	-0,02313923
3,238	-0,01773438	-0,02537313
3,239	0,08917969	-0,02728024
3,24	0,1258203	-0,02884186
3,241	-0,03605469	-0,02999616
3,242	-0,1529297	-0,03071361
3,243	-0,08660156	-0,03098544
3,244	-0,07652344	-0,03082348
3,245	-0,1757031	-0,0302588
3,246	-0,1901563	-0,02934967
3,247	-0,1230859	-0,02812134
3,248	-0,1054688	-0,02663901
3,249	-0,09136719	-0,02496535
3,25	-0,03261719	-0,02317021
3,251	0,001601563	-0,02133152
3,252	0,03867188	-0,01953508
3,253	0,1044531	-0,0178967
3,254	0,1255859	-0,01642804
3,255	0,1043359	-0,01522166
3,256	0,08648438	-0,01433555
3,257	0,07265625	-0,01381842
3,258	0,04195313	-0,01371163
3,259	-0,0125	-0,01404981
3,26	-0,05707031	-0,01488438
3,261	-0,06167969	-0,01614999
3,262	-0,04671875	-0,01786004
3,263	-0,03863281	-0,01999217
3,264	-0,008828125	-0,02251461
3,265	0,01800781	-0,02538769
3,266	-0,003007813	-0,02856436
3,267	-0,008007812	-0,03200778
3,268	-0,03859375	-0,03560018
3,269	-0,1679297	-0,03928979
3,27	-0,2433594	-0,04300977
3,271	-0,1492578	-0,04669619
3,272	-0,003125	-0,05028801
3,273	0,02695313	-0,05372695
3,274	-0,06292969	-0,05697233
3,275	-0,1333594	-0,05993229
3,276	-0,1177344	-0,06258547
3,277	-0,08066406	-0,06490627
3,278	-0,07015625	-0,06687802
3,279	-0,06484375	-0,0684919
3,28	-0,07175781	-0,06974681
3,281	-0,06550781	-0,07066726
3,282	-0,02515625	-0,07122245
3,283	-0,01464844	-0,07146703
3,284	-0,01917969	-0,07144054
3,285	-0,002109375	-0,07118314
3,286	0,0025	-0,07073497
3,287	-0,01054688	-0,070137
3,288	-0,002460938	-0,06945053
3,289	0,009960938	-0,06867219
3,29	-0,04453125	-0,06788077
3,291	-0,1228516	-0,06712679
3,292	-0,1107813	-0,06645005
3,293	-0,04738281	-0,0658798
3,294	-0,05132813	-0,0654364
3,295	-0,1164844	-0,06514377
3,296	-0,1980078	-0,06498559
3,297	-0,2375781	-0,06499218
3,298	-0,1710547	-0,06517151
3,299	-0,06644531	-0,06551961
3,3	-0,02617188	-0,06602044
3,301	-0,05441406	-0,0666472
3,302	-0,07300781	-0,06736237
3,303	-0,05527344	-0,06813943
3,304	-0,02898438	-0,06895125
3,305	0,01175781	-0,06976941
3,306	0,02128906	-0,07056166
3,307	-0,02535156	-0,07129118
3,308	-0,06804688	-0,07191699
3,309	-0,08800781	-0,07238576
3,31	-0,103125	-0,07269166
3,311	-0,1147266	-0,07280147
3,312	-0,1099219	-0,07269618
3,313	-0,09386719	-0,07236062
3,314	-0,09089844	-0,07178273
3,315	-0,08832031	-0,07095377
3,316	-0,08878906	-0,06985996
3,317	-0,09164063	-0,06853565
3,318	-0,0428125	-0,06698678
3,319	0,013125	-0,06523302
3,32	-0,001210938	-0,06329807
3,321	-0,03980469	-0,06120964
3,322	-0,05546875	-0,05899995
3,323	-0,06027344	-0,05669913
3,324	-0,05621094	-0,0543698
3,325	-0,03636719	-0,05204622
3,326	-0,03753906	-0,04976834
3,327	-0,06199219	-0,04757493
3,328	-0,03753906	-0,0455039
3,329	-0,00484375	-0,04359237
3,33	-0,03867188	-0,04186891
3,331	-0,07796875	-0,04038353
3,332	-0,08164063	-0,03914684
3,333	-0,08226562	-0,03817166
3,334	-0,080625	-0,03746686
3,335	-0,04210937	-0,0370376
3,336	-0,00421875	-0,0368844
3,337	-0,01425781	-0,03699773
3,338	-0,02347656	-0,03736809
3,339	-0,04796875	-0,03795428
3,34	-0,1190625	-0,03871853
3,341	-0,1243359	-0,03962484
3,342	-0,03710938	-0,04064035
3,343	0,01304687	-0,04173457
3,344	-0,006171875	-0,04288913
3,345	-0,04429687	-0,04402586
3,346	-0,08050781	-0,04509733
3,347	-0,09050781	-0,04605426
3,348	-0,08203125	-0,04686082
3,349	-0,05707031	-0,04749819
3,35	0,008710937	-0,04796535
3,351	0,06941406	-0,04831254
3,352	0,06859375	-0,04844296
3,353	-0,01632812	-0,04838475
3,354	-0,09902344	-0,04814562
3,355	-0,0525	-0,04775126
3,356	0,02359375	-0,04724997
3,357	-0,005351563	-0,04671411
3,358	-0,05539062	-0,04628735
3,359	-0,03570313	-0,04590558
3,36	-0,00328125	-0,04568141
3,361	-0,03957031	-0,04568275
3,362	-0,1384375	-0,0459835
3,363	-0,1772266	-0,04666607
3,364	-0,1026563	-0,04782081
3,365	-0,02761719	-0,04958746
3,366	-0,02828125	-0,05190087
3,367	-0,08886719	-0,05484923
3,368	-0,1475	-0,0584641
3,369	-0,1628516	-0,0627649
3,37	-0,1421875	-0,06775803
3,371	-0,07484375	-0,07343398
3,372	-0,01003906	-0,07979897
3,373	-0,02597656	-0,08668941
3,374	-0,06773437	-0,09406641
3,375	-0,06628906	-0,1018427
3,376	-0,06167969	-0,1099176
3,377	-0,09023438	-0,118176
3,378	-0,1252344	-0,1264862
3,379	-0,1315234	-0,1347417
3,38	-0,1039063	-0,1426693
3,381	-0,08945313	-0,150175
3,382	-0,1244922	-0,1571295
3,383	-0,1711719	-0,1634099
3,384	-0,1884375	-0,1689016
3,385	-0,2027344	-0,1735022
3,386	-0,2196875	-0,1771831
3,387	-0,1772656	-0,1797243
3,388	-0,1133984	-0,1811792
3,389	-0,1087891	-0,181562
3,39	-0,1769141	-0,1809043
3,391	-0,2819141	-0,1792585
3,392	-0,2947656	-0,1767044
3,393	-0,2018359	-0,173402
3,394	-0,1200391	-0,1693775
3,395	-0,0675	-0,1648844
3,396	-0,06011719	-0,1601265
3,397	-0,06992188	-0,1552973
3,398	-0,09183594	-0,1505776
3,399	-0,2539453	-0,1461385
3,4	-0,3935156	-0,1421202
3,401	-0,2846484	-0,138791
3,402	-0,135625	-0,1363426
3,403	-0,1491797	-0,1349473
3,404	-0,1999219	-0,1347183
3,405	-0,1715234	-0,1356969
3,406	-0,1274219	-0,1378474
3,407	-0,104375	-0,1409233
3,408	-0,08578125	-0,1452354
3,409	-0,08230469	-0,1505903
3,41	-0,09527344	-0,1568763
3,411	-0,1242188	-0,1639107
3,412	-0,1526172	-0,1714186
3,413	-0,1352734	-0,179025
3,414	-0,09582031	-0,1860494
3,415	-0,1151563	-0,1927176
3,416	-0,1501562	-0,1985094
3,417	-0,1335156	-0,2031086
3,418	-0,1624219	-0,2061789
3,419	-0,2649219	-0,2073463
3,42	-0,3088672	-0,2061979
3,421	-0,2826172	-0,2021033
3,422	-0,2744141	-0,1953288
3,423	-0,2508984	-0,1855136
3,424	-0,1755859	-0,1725385
3,425	-0,1311719	-0,1563308
3,426	-0,1339844	-0,1368633
3,427	-0,1217969	-0,1141636
3,428	-0,1065625	-0,08823647
3,429	-0,1071484	-0,05957103
3,43	-0,091875	-0,02835685
3,431	-0,05808594	0,00507459
3,432	0,01089844	0,04033018
3,433	0,1155469	0,07693758
3,434	0,2041406	0,1143324
3,435	0,2798438	0,1518476
3,436	0,3023828	0,1888741
3,437	0,2476562	0,2248886
3,438	0,210625	0,2593793
3,439	0,2197266	0,2918133
3,44	0,2480469	0,3216102
3,441	0,2846484	0,3481379
3,442	0,3237109	0,3706885
3,443	0,3422656	0,3889307
3,444	0,3323047	0,4026539
3,445	0,4064844	0,4117249
3,446	0,5617188	0,4160178
3,447	0,6002734	0,4153942
3,448	0,5085937	0,4097143
3,449	0,4326172	0,398848
3,45	0,3929688	0,3830362
3,451	0,3449219	0,3627262
3,452	0,3078125	0,3383806
3,453	0,3036719	0,3104367
3,454	0,3036719	0,2793016
3,455	0,2764844	0,2453761
3,456	0,1917187	0,2090653
3,457	0,06289063	0,1710428
3,458	0,01027344	0,1320275
3,459	0,0559375	0,09267969
3,46	0,08207031	0,05357893
3,461	0,04914063	0,0152326
3,462	-0,03304688	-0,02190208
3,463	-0,1224219	-0,05748789
3,464	-0,1648047	-0,09083316
3,465	-0,1255859	-0,1216638
3,466	-0,02488281	-0,1497073
3,467	-0,05835937	-0,1747691
3,468	-0,248125	-0,1967212
3,469	-0,3680469	-0,2154954
3,47	-0,3659766	-0,2312732
3,471	-0,2784766	-0,2435905
3,472	-0,1691797	-0,2528948
3,473	-0,1614453	-0,2594545
3,474	-0,2258203	-0,2635356
3,475	-0,2594141	-0,2653989
3,476	-0,2447266	-0,265312
3,477	-0,1709766	-0,2638095
3,478	-0,1043359	-0,2605537
3,479	-0,1873828	-0,2563078
3,48	-0,3238672	-0,2515084
3,481	-0,3137891	-0,2465054
3,482	-0,2324219	-0,2415693
3,483	-0,2151562	-0,2369132
3,484	-0,2260547	-0,2329249
3,485	-0,2189453	-0,2292066
3,486	-0,219375	-0,2262535
3,487	-0,2540234	-0,2242531
3,488	-0,2904688	-0,2232972
3,489	-0,2913672	-0,2233899
3,49	-0,2634375	-0,224468
3,491	-0,2280469	-0,226532
3,492	-0,2411719	-0,2291633
3,493	-0,3208594	-0,2324204
3,494	-0,3577344	-0,2362122
3,495	-0,29	-0,24041
3,496	-0,2280859	-0,2448504
3,497	-0,2144922	-0,2493446
3,498	-0,1933203	-0,2537097
3,499	-0,1882813	-0,2577201
3,5	-0,2008984	-0,2612715
3,501	-0,2130859	-0,2642601
3,502	-0,2416406	-0,2665983
3,503	-0,2584766	-0,2682108
3,504	-0,2523047	-0,2690345
3,505	-0,2402734	-0,2689997
3,506	-0,2324219	-0,268166
3,507	-0,2208594	-0,2665418
3,508	-0,1739453	-0,2641805
3,509	-0,1791797	-0,2611522
3,51	-0,2863281	-0,2575387
3,511	-0,3460156	-0,2534313
3,512	-0,3280078	-0,2489042
3,513	-0,3291797	-0,244151
3,514	-0,3382422	-0,2392731
3,515	-0,3196875	-0,2343873
3,516	-0,2864063	-0,2295986
3,517	-0,2474609	-0,2249981
3,518	-0,21375	-0,2206635
3,519	-0,1819531	-0,216635
3,52	-0,1606641	-0,2130395
3,521	-0,1866016	-0,2098986
3,522	-0,21625	-0,2072342
3,523	-0,1964063	-0,2050468
3,524	-0,155	-0,203316
3,525	-0,1341016	-0,2020031
3,526	-0,1695312	-0,2010192
3,527	-0,2146094	-0,2003993
3,528	-0,1812109	-0,2000413
3,529	-0,1176172	-0,1998724
3,53	-0,1062109	-0,1998172
3,531	-0,1264063	-0,1997982
3,532	-0,1790625	-0,199736
3,533	-0,2627344	-0,199505
3,534	-0,3203516	-0,1991692
3,535	-0,3586328	-0,1986193
3,536	-0,3579688	-0,1978077
3,537	-0,2797266	-0,1967017
3,538	-0,1512891	-0,1952813
3,539	-0,05027344	-0,1935364
3,54	-0,1209766	-0,1914153
3,541	-0,2639453	-0,1890803
3,542	-0,2436719	-0,1864999
3,543	-0,1425391	-0,1837046
3,544	-0,1076563	-0,1807338
3,545	-0,1062891	-0,177632
3,546	-0,1073828	-0,1744461
3,547	-0,1642188	-0,1711739
3,548	-0,2227344	-0,1680098
3,549	-0,2258594	-0,1649491
3,55	-0,2475391	-0,1620307
3,551	-0,2139062	-0,1592868
3,552	-0,1250781	-0,1567404
3,553	-0,1210938	-0,1544037
3,554	-0,1330078	-0,1522278
3,555	-0,09710937	-0,1503525
3,556	-0,073125	-0,1487164
3,557	-0,07292969	-0,1472981
3,558	-0,1103516	-0,146068
3,559	-0,1758984	-0,1449865
3,56	-0,1868359	-0,1440034
3,561	-0,1667578	-0,1430069
3,562	-0,1875	-0,1420928
3,563	-0,1776953	-0,1411543
3,564	-0,1013281	-0,1401397
3,565	-0,08082031	-0,1390008
3,566	-0,1401563	-0,1376911
3,567	-0,1891797	-0,1361651
3,568	-0,2400781	-0,1343265
3,569	-0,2674219	-0,1322985
3,57	-0,204375	-0,1300065
3,571	-0,1026563	-0,1274393
3,572	-0,05984375	-0,1245963
3,573	-0,09078125	-0,1214856
3,574	-0,07707031	-0,118122
3,575	-0,0103125	-0,1144799
3,576	-0,02085937	-0,1107271
3,577	-0,07261719	-0,1068467
3,578	-0,0909375	-0,1028738
3,579	-0,1040625	-0,09884898
3,58	-0,1076563	-0,09481651
3,581	-0,1103125	-0,09082335
3,582	-0,1166016	-0,08687942
3,583	-0,1007813	-0,0831381
3,584	-0,075625	-0,07958735
3,585	-0,07992188	-0,07625014
3,586	-0,1470703	-0,07314814
3,587	-0,185	-0,07030232
3,588	-0,09636719	-0,0677319
3,589	0,01566406	-0,06542139
3,59	0,02316406	-0,06346231
3,591	-0,04957031	-0,06180079
3,592	-0,09144531	-0,06041358
3,593	-0,07316406	-0,05927936
3,594	-0,05136719	-0,05837984
3,595	-0,0475	-0,05769856
3,596	-0,03628906	-0,057192
3,597	-0,00875	-0,05690962
3,598	-0,01148438	-0,05677663
3,599	-0,04652344	-0,05675333
3,6	-0,0584375	-0,05680943
3,601	-0,0684375	-0,05692418
3,602	-0,0978125	-0,05708416
3,603	-0,08589844	-0,05725856
3,604	-0,049375	-0,05749636
3,605	-0,05339844	-0,05774798
3,606	-0,05824219	-0,05799603
3,607	-0,04292969	-0,05823303
3,608	-0,06257812	-0,05846029
3,609	-0,1029688	-0,05868524
3,61	-0,1060938	-0,05890456
3,611	-0,1094141	-0,05916359
3,612	-0,1580469	-0,05944411
3,613	-0,1886328	-0,05974561
3,614	-0,1394922	-0,06007097
3,615	-0,02460937	-0,06042571
3,616	0,1047266	-0,06081601
3,617	0,1555859	-0,06124396
3,618	0,0740625	-0,06171624
3,619	-0,03714844	-0,06222179
3,62	-0,08484375	-0,06275152
3,621	-0,06777344	-0,06329608
3,622	-0,02703125	-0,06384638
3,623	-0,04144531	-0,06439341
3,624	-0,06265625	-0,06493634
3,625	-0,05035156	-0,06543754
3,626	-0,07027344	-0,06589047
3,627	-0,1229688	-0,06628137
3,628	-0,18875	-0,06659908
3,629	-0,1990234	-0,06683657
3,63	-0,1146484	-0,06699207
3,631	-0,04382813	-0,0670861
3,632	-0,04773438	-0,06707325
3,633	-0,0496875	-0,0669738
3,634	-0,0146875	-0,06679517
3,635	-0,02132813	-0,0665497
3,636	-0,0759375	-0,06625624
3,637	-0,1157422	-0,06594112
3,638	-0,1291797	-0,06565685
3,639	-0,1291016	-0,06537903
3,64	-0,1097266	-0,06515368
3,641	-0,05371094	-0,06500841
3,642	-0,0134375	-0,06497157
3,643	-0,03542969	-0,06507295
3,644	-0,05769531	-0,06534381
3,645	-0,04773438	-0,06582937
3,646	-0,04121094	-0,06651359
3,647	-0,02394531	-0,06742608
3,648	0,007109375	-0,06857776
3,649	0,01097656	-0,06997381
3,65	-0,01957031	-0,07161307
3,651	-0,05976563	-0,07348732
3,652	-0,06207031	-0,07558373
3,653	-0,02804687	-0,07787027
3,654	-0,0171875	-0,08032648
3,655	-0,05519531	-0,08292347
3,656	-0,1188281	-0,08562584
3,657	-0,1860547	-0,08838992
3,658	-0,2373437	-0,09116299
3,659	-0,2442578	-0,09387849
3,66	-0,2394922	-0,09649675
3,661	-0,2291797	-0,09897128
3,662	-0,1698047	-0,1012612
3,663	-0,1212109	-0,103324
3,664	-0,1028125	-0,1051134
3,665	-0,0275	-0,1065794
3,666	0,05523438	-0,1076635
3,667	0,04558594	-0,1083528
3,668	-0,0240625	-0,108633
3,669	-0,08804687	-0,1085
3,67	-0,08238281	-0,1079511
3,671	-0,02242188	-0,106984
3,672	-0,02359375	-0,1055982
3,673	-0,08664062	-0,1037948
3,674	-0,11	-0,1016064
3,675	-0,1085547	-0,09907598
3,676	-0,1539453	-0,09624844
3,677	-0,2192188	-0,0931679
3,678	-0,2465234	-0,089878
3,679	-0,1982422	-0,08642409
3,68	-0,09710937	-0,08285395
3,681	-0,03417969	-0,07923131
3,682	-0,02324219	-0,07561749
3,683	-0,03523437	-0,07206925
3,684	-0,08011719	-0,0686379
3,685	-0,09566406	-0,06537066
3,686	-0,03074219	-0,06231221
3,687	0,05535156	-0,05949698
3,688	0,07347656	-0,05698728
3,689	-0,008671875	-0,05479982
3,69	-0,1012891	-0,05295322
3,691	-0,1395313	-0,05146065
3,692	-0,1158984	-0,05033034
3,693	-0,05710938	-0,04956511
3,694	-0,04957031	-0,04914434
3,695	-0,0759375	-0,04909925
3,696	-0,09371094	-0,04937687
3,697	-0,0990625	-0,04994091
3,698	-0,06261719	-0,05075597
3,699	-0,0234375	-0,0517873
3,7	-0,0228125	-0,05299845
3,701	-0,03160156	-0,05433641
3,702	-0,03453125	-0,05578362
3,703	-0,03316406	-0,05725877
3,704	-0,02	-0,05870175
3,705	-0,01761719	-0,06006296
3,706	-0,03050781	-0,06130407
3,707	-0,02445312	-0,06239649
3,708	-0,03417969	-0,06332887
3,709	-0,08195313	-0,06404326
3,71	-0,1221484	-0,06451037
3,711	-0,1553906	-0,06470492
3,712	-0,1644531	-0,06461841
3,713	-0,1279687	-0,06426258
3,714	-0,09949219	-0,06367016
3,715	-0,07503906	-0,06292957
3,716	-0,00921875	-0,06198004
3,717	0,03332031	-0,06089165
3,718	-0,01242188	-0,05970803
3,719	-0,05574219	-0,05848534
3,72	-0,04066406	-0,05729667
3,721	-0,03636719	-0,05623353
3,722	-0,03875	-0,0554496
3,723	-0,015	-0,05490256
3,724	-0,01515625	-0,05471006
3,725	-0,06027344	-0,05494093
3,726	-0,089375	-0,05566177
3,727	-0,08597656	-0,0569386
3,728	-0,08601562	-0,05883602
3,729	-0,07421875	-0,06144923
3,73	-0,05816406	-0,06470558
3,731	-0,1014063	-0,06864815
3,732	-0,1530469	-0,07327136
3,733	-0,08648438	-0,07855565
3,734	0,00671875	-0,08446585
3,735	-0,03617187	-0,09094807
3,736	-0,1322656	-0,09795409
3,737	-0,1805469	-0,1053025
3,738	-0,1595703	-0,1129119
3,739	-0,06675781	-0,120667
3,74	-0,03933594	-0,1284461
3,741	-0,1142188	-0,1361199
3,742	-0,1622656	-0,1435511
3,743	-0,1953906	-0,1506376
3,744	-0,2289453	-0,1571119
3,745	-0,2078125	-0,1628976
3,746	-0,1878516	-0,1678886
3,747	-0,1732031	-0,1719932
3,748	-0,1369531	-0,1751381
3,749	-0,1291797	-0,1772727
3,75	-0,1174219	-0,1784393
3,751	-0,08078125	-0,178459
3,752	-0,06964844	-0,1774505
3,753	-0,1182422	-0,1754851
3,754	-0,2466406	-0,1726513
3,755	-0,3650781	-0,1690595
3,756	-0,3340625	-0,1648493
3,757	-0,1641797	-0,1602392
3,758	-0,03546875	-0,1553089
3,759	-0,07546875	-0,1503451
3,76	-0,1510156	-0,145577
3,761	-0,1362891	-0,1412141
3,762	-0,125625	-0,1374425
3,763	-0,1419922	-0,1344257
3,764	-0,1058203	-0,13226
3,765	-0,05503906	-0,1312457
3,766	-0,06507813	-0,1315109
3,767	-0,1251172	-0,1331789
3,768	-0,1781641	-0,136304
3,769	-0,2000391	-0,140854
3,77	-0,214375	-0,1467027
3,771	-0,2376953	-0,1534597
3,772	-0,2553125	-0,1614359
3,773	-0,24125	-0,1703115
3,774	-0,1857813	-0,1798864
3,775	-0,1539844	-0,1898896
3,776	-0,2193359	-0,1999534
3,777	-0,2926172	-0,2096045
3,778	-0,2470313	-0,218035
3,779	-0,1326563	-0,2254648
3,78	-0,073125	-0,2312999
3,781	-0,1136328	-0,235187
3,782	-0,1873047	-0,2367636
3,783	-0,2006641	-0,2356411
3,784	-0,1771094	-0,2314047
3,785	-0,1811719	-0,2234445
3,786	-0,1973438	-0,2120502
3,787	-0,210625	-0,1969277
3,788	-0,2296094	-0,1780281
3,789	-0,2293359	-0,1553624
3,79	-0,1991406	-0,1290048
3,791	-0,1533203	-0,09910686
3,792	-0,08371094	-0,06585309
3,793	0,00125	-0,02978985
3,794	0,06	0,008729504
3,795	0,1014453	0,04924305
3,796	0,1298047	0,09122436
3,797	0,1137109	0,134058
3,798	0,09351563	0,1770236
3,799	0,1025	0,2192585
3,8	0,1692969	0,2601107
3,801	0,2980078	0,298951
3,802	0,3903516	0,3352035
3,803	0,4425391	0,3682797
3,804	0,4625391	0,3975488
3,805	0,4074609	0,422335
3,806	0,3561719	0,4418969
3,807	0,3455859	0,4559368
3,808	0,3564062	0,4643196
3,809	0,4146875	0,4669985
3,81	0,4936719	0,4639428
3,811	0,5421094	0,455119
3,812	0,5517969	0,4405096
3,813	0,5376563	0,4201483
3,814	0,510625	0,3943924
3,815	0,4748828	0,3638961
3,816	0,4195313	0,3293006
3,817	0,3321875	0,2912165
3,818	0,2351172	0,2502255
3,819	0,1550391	0,2069095
3,82	0,08480469	0,1618782
3,821	0,02574219	0,1159258
3,822	-0,01214844	0,0699125
3,823	-0,04097656	0,02460417
3,824	-0,063125	-0,01932948
3,825	-0,05703125	-0,06130118
3,826	-0,05082031	-0,1007841
3,827	-0,1223438	-0,1373958
3,828	-0,2228516	-0,1704153
3,829	-0,249375	-0,1996437
3,83	-0,2267188	-0,224884
3,831	-0,2216797	-0,2460242
3,832	-0,2208984	-0,263025
3,833	-0,1995703	-0,2759189
3,834	-0,2065625	-0,2850369
3,835	-0,2513672	-0,2899873
3,836	-0,3201953	-0,2914492
3,837	-0,4161328	-0,2898769
3,838	-0,4882422	-0,2857078
3,839	-0,4998047	-0,2793623
3,84	-0,4272656	-0,271262
3,841	-0,2219531	-0,2621192
3,842	-0,01589844	-0,2516833
3,843	-0,008164062	-0,2408858
3,844	-0,0946875	-0,2302787
3,845	-0,1356641	-0,220301
3,846	-0,1677344	-0,2112887
3,847	-0,1823047	-0,2035005
3,848	-0,1606641	-0,1973421
3,849	-0,1566016	-0,1924387
3,85	-0,18875	-0,1892394
3,851	-0,2200781	-0,1878783
3,852	-0,2496484	-0,1883803
3,853	-0,266875	-0,1906701
3,854	-0,2414844	-0,1945906
3,855	-0,2059766	-0,1999944
3,856	-0,2003516	-0,206442
3,857	-0,2505078	-0,2138021
3,858	-0,3068359	-0,221844
3,859	-0,293125	-0,2303112
3,86	-0,2758594	-0,238922
3,861	-0,2900781	-0,247374
3,862	-0,2695313	-0,2553309
3,863	-0,2049609	-0,2625874
3,864	-0,1697656	-0,2689004
3,865	-0,2223438	-0,274095
3,866	-0,2894141	-0,278035
3,867	-0,2934766	-0,280615
3,868	-0,2700781	-0,2817568
3,869	-0,2655859	-0,2813633
3,87	-0,2692578	-0,2795879
3,871	-0,263125	-0,2764512
3,872	-0,285	-0,2720555
3,873	-0,3260156	-0,2665282
3,874	-0,3138672	-0,2600153
3,875	-0,2778125	-0,2526782
3,876	-0,2510938	-0,2446611
3,877	-0,2138281	-0,2362628
3,878	-0,2151562	-0,2276716
3,879	-0,215625	-0,219087
3,88	-0,14	-0,210686
3,881	-0,07722656	-0,2026224
3,882	-0,09007812	-0,1950284
3,883	-0,1700781	-0,1879909
3,884	-0,2737891	-0,1816853
3,885	-0,2844141	-0,1761662
3,886	-0,2090234	-0,1714752
3,887	-0,1435547	-0,1676193
3,888	-0,1133594	-0,1645738
3,889	-0,1286719	-0,1622858
3,89	-0,1560938	-0,1606326
3,891	-0,1515625	-0,1596552
3,892	-0,1357812	-0,1591998
3,893	-0,1402734	-0,1591523
3,894	-0,1560156	-0,159396
3,895	-0,1759766	-0,1598112
3,896	-0,2391406	-0,1602759
3,897	-0,3265625	-0,1605951
3,898	-0,3291016	-0,1608657
3,899	-0,2068359	-0,1609074
3,9	-0,08742187	-0,1606373
3,901	-0,07101562	-0,1599957
3,902	-0,1078516	-0,1589409
3,903	-0,1548438	-0,1574451
3,904	-0,1749219	-0,1554076
3,905	-0,1620703	-0,1530795
3,906	-0,1730078	-0,1503906
3,907	-0,1465625	-0,1473722
3,908	-0,04992188	-0,1440678
3,909	-0,009414063	-0,1405268
3,91	-0,04636719	-0,1367978
3,911	-0,1330078	-0,1328427
3,912	-0,2342969	-0,1289632
3,913	-0,2220313	-0,1251315
3,914	-0,11875	-0,121395
3,915	-0,05199219	-0,1177892
3,916	-0,04183594	-0,1143327
3,917	-0,05160156	-0,1110241
3,918	-0,04523438	-0,1077596
3,919	-0,08273437	-0,1047643
3,92	-0,1976172	-0,1019388
3,921	-0,2303516	-0,09925291
3,922	-0,1544531	-0,09666223
3,923	-0,09550781	-0,09410591
3,924	-0,04316406	-0,09150619
3,925	0,01753906	-0,0886876
3,926	0,0096875	-0,08581977
3,927	-0,07199219	-0,08275462
3,928	-0,1385938	-0,07943238
3,929	-0,1527344	-0,07579791
3,93	-0,1369531	-0,07179889
3,931	-0,1582422	-0,06738575
3,932	-0,23	-0,0624322
3,933	-0,2505859	-0,05715894
3,934	-0,1741797	-0,05147598
3,935	-0,04222656	-0,04539124
3,936	0,06796875	-0,03892803
3,937	0,07628906	-0,03212358
3,938	0,03429687	-0,02502747
3,939	0,08070313	-0,01762514
3,94	0,1610156	-0,01021117
3,941	0,159375	-0,002770787
3,942	0,1228125	0,004628141
3,943	0,09859375	0,01191072
3,944	0,09328125	0,01899583
3,945	0,08253906	0,02579886
3,946	0,03777344	0,03230693
3,947	-0,02578125	0,03824083
3,948	-0,09414063	0,04363983
3,949	-0,09199219	0,04847637
3,95	0,007148438	0,05272613
3,951	0,05265625	0,05636835
3,952	-0,002460938	0,05938957
3,953	-0,05074219	0,06185965
3,954	-0,07484375	0,06359469
3,955	-0,08613281	0,0647326
3,956	-0,04519531	0,06533982
3,957	0,07804688	0,06548109
3,958	0,2159766	0,06522071
3,959	0,2424609	0,06462711
3,96	0,1748828	0,06384296
3,961	0,08714844	0,06276901
3,962	0,02773438	0,0615884
3,963	0,03757813	0,06040332
3,964	0,05660156	0,0593
3,965	0,05839844	0,05835062
3,966	0,07476563	0,05761764
3,967	0,09085938	0,05720095
3,968	0,12	0,05703135
3,969	0,1525781	0,05721795
3,97	0,1258984	0,05780499
3,971	0,07277344	0,05881431
3,972	0,06921875	0,06024537
3,973	0,065	0,06207762
3,974	0,01238281	0,06428122
3,975	-0,02460937	0,06679636
3,976	-0,06441406	0,06960372
3,977	-0,09738281	0,0726636
3,978	0,007421875	0,07592103
3,979	0,1485938	0,07930263
3,98	0,1572266	0,08271631
3,981	0,1225781	0,08603157
3,982	0,1277344	0,08922114
3,983	0,1289063	0,09219581
3,984	0,1091016	0,09488947
3,985	0,09109375	0,09723311
3,986	0,1049609	0,0991501
3,987	0,1366797	0,1005556
3,988	0,1363672	0,1013278
3,989	0,1022656	0,1015025
3,99	0,07480469	0,1010276
3,991	0,08328125	0,09988945
3,992	0,08957031	0,09807837
3,993	0,06484375	0,09558565
3,994	0,06132813	0,09240513
3,995	0,08976563	0,08851165
3,996	0,086875	0,08401526
3,997	0,06804688	0,07895555
3,998	0,08640625	0,07339955
3,999	0,08996094	0,06741554
4	0,06742188	0,06107343
4,001	0,07125	0,0544477
4,002	0,05496094	0,04759946
4,003	-0,000390625	0,04068933
4,004	-0,004960938	0,03379796
4,005	0,04496094	0,02701991
4,006	0,06085938	0,02044375
4,007	0,03195312	0,01415374
4,008	0,01488281	0,00823126
4,009	0,026875	0,002727459
4,01	0,02621094	-0,002210677
4,011	-0,01277344	-0,006571444
4,012	-0,06769531	-0,01032563
4,013	-0,1192969	-0,01345169
4,014	-0,1166406	-0,01593463
4,015	-0,03351563	-0,01776769
4,016	0,05664063	-0,01899046
4,017	0,1141797	-0,019534
4,018	0,1268359	-0,01950632
4,019	0,04316406	-0,01897979
4,02	-0,08625	-0,01802339
4,021	-0,1106641	-0,01670206
4,022	-0,01597656	-0,01507998
4,023	0,05421875	-0,01325443
4,024	0,01484375	-0,01122774
4,025	-0,05300781	-0,009145749
4,026	-0,07414063	-0,007107167
4,027	-0,08886719	-0,005191103
4,028	-0,06847656	-0,003456378
4,029	0,009257813	-0,001944122
4,03	0,03632813	-0,0006933709
4,031	0,01390625	0,0003012615
4,032	0,01976563	0,0009894469
4,033	0,02386719	0,001354677
4,034	0,006015625	0,001402187
4,035	-0,01355469	0,001159164
4,036	-0,02730469	0,0006729133
4,037	-0,02554688	1,034061e-005
4,038	-0,01226563	-0,0007698293
4,039	0,01398438	-0,001602968
4,04	0,03507813	-0,002422146
4,041	0,0240625	-0,003157521
4,042	-0,002773437	-0,003737572
4,043	-0,02382813	-0,004091129
4,044	-0,01964844	-0,004146428
4,045	0,01496094	-0,003856259
4,046	0,04703125	-0,003168604
4,047	0,03433594	-0,002050482
4,048	-0,002070313	-0,0004858498
4,049	0,006132813	0,001522435
4,05	0,03816406	0,003950988
4,051	0,04464844	0,006753244
4,052	0,04738281	0,009877362
4,053	0,0246875	0,01326157
4,054	-0,03726563	0,01683287
4,055	-0,03582031	0,02050535
4,056	0,03148438	0,02417936
4,057	0,04746094	0,02774207
4,058	0,0225	0,0310687
4,059	-0,002695313	0,03404997
4,06	-0,03644531	0,03659183
4,061	-0,05449219	0,03861001
4,062	-0,03988281	0,04002911
4,063	-0,002109375	0,04078321
4,064	0,01402344	0,04081863
4,065	0,02683594	0,04010298
4,066	0,1062109	0,03861752
4,067	0,1896094	0,03639504
4,068	0,1560938	0,03348029
4,069	0,02050781	0,02993348
4,07	-0,07734375	0,02583077
4,071	-0,06710937	0,02126647
4,072	-0,003320312	0,01635928
4,073	0,05703125	0,01123175
4,074	0,0628125	0,00603411
4,075	0,01828125	0,0009083395
4,076	0,0128125	-0,004009607
4,077	0,03789063	-0,008590574
4,078	0,03644531	-0,01271269
4,079	0,04074219	-0,0162716
4,08	0,07535156	-0,01914382
4,081	0,1153516	-0,02126292
4,082	0,085625	-0,022579
4,083	-0,048125	-0,02306757
4,084	-0,1695312	-0,02273044
4,085	-0,1708594	-0,0215975
4,086	-0,1082031	-0,01975246
4,087	-0,08949219	-0,01721133
4,088	-0,1385938	-0,01410858
4,089	-0,1908984	-0,01056728
4,09	-0,1361328	-0,006721235
4,091	0,04390625	-0,002715126
4,092	0,1859375	0,001295192
4,093	0,1669141	0,005113638
4,094	0,07820312	0,008668805
4,095	-0,002109375	0,01178155
4,096	-0,08910156	0,01432336
4,097	-0,1312109	0,01618576
4,098	-0,09050781	0,01727962
4,099	0,01363281	0,01753579
4,1	0,1410547	0,01687578
4,101	0,2026172	0,01538742
4,102	0,1916797	0,01306926
4,103	0,1401563	0,009977148
4,104	0,05289063	0,006187089
4,105	0,01199219	0,001791306
4,106	-0,01605469	-0,003103197
4,107	-0,09324219	-0,008414892
4,108	-0,1353516	-0,01387326
4,109	-0,1052344	-0,01934894
4,11	-0,001757813	-0,02468144
4,111	0,06707031	-0,0297258
4,112	-0,03941406	-0,03435871
4,113	-0,2108594	-0,03848255
4,114	-0,2562109	-0,0420743
4,115	-0,1274219	-0,04493919
4,116	0,05976563	-0,04708345
4,117	0,1222266	-0,04849955
4,118	0,05046875	-0,04921228
4,119	-0,01277344	-0,04928082
4,12	-0,0378125	-0,04880075
4,121	-0,06488281	-0,0479236
4,122	-0,07046875	-0,04675632
4,123	-0,06289063	-0,04550617
4,124	-0,06757813	-0,04436299
4,125	-0,05574219	-0,04350693
4,126	-0,03234375	-0,04309986
4,127	-0,02816406	-0,04328092
4,128	-0,04285156	-0,04410599
4,129	-0,06746094	-0,04587741
4,13	-0,06832031	-0,04868825
4,131	-0,04734375	-0,05263839
4,132	-0,06074219	-0,0577587
4,133	-0,09003906	-0,0639921
4,134	-0,09644531	-0,07118486
4,135	-0,09871094	-0,07894052
